Datetime,Open,High,Low,Close,Volume,Dividends,Stock Splits
2019-12-17 11:05:00-05:00,113.75,113.75,113.75,113.75,0,0,0
2019-12-17 11:06:00-05:00,113.68,113.68,113.68,113.68,561,0,0
2019-12-17 11:07:00-05:00,113.69,113.71,113.52,113.59,1748,0,0
2019-12-17 11:13:00-05:00,113.56,113.56,113.56,113.56,360,0,0
2019-12-17 11:14:00-05:00,113.61,113.61,113.53,113.53,322,0,0
2019-12-17 11:16:00-05:00,113.61,113.61,113.61,113.61,321,0,0
2019-12-17 11:18:00-05:00,113.55,113.57,113.55,113.57,209,0,0
2019-12-17 11:19:00-05:00,113.56,113.57,113.56,113.57,662,0,0
2019-12-17 11:22:00-05:00,113.63,113.63,113.63,113.63,214,0,0
2019-12-17 11:24:00-05:00,113.59,113.59,113.59,113.59,560,0,0
2019-12-17 11:26:00-05:00,113.62,113.62,113.62,113.62,484,0,0
2019-12-17 11:27:00-05:00,113.6,113.6,113.6,113.6,144,0,0
2019-12-17 11:30:00-05:00,113.58,113.58,113.58,113.58,207,0,0
2019-12-17 11:31:00-05:00,113.66,113.66,113.66,113.66,233,0,0
2019-12-17 11:32:00-05:00,113.59,113.65,113.59,113.65,1036,0,0
2019-12-17 11:33:00-05:00,113.61,113.61,113.61,113.61,394,0,0
2019-12-17 11:35:00-05:00,113.6,113.6,113.54,113.54,1115,0,0
2019-12-17 11:36:00-05:00,113.58,113.58,113.56,113.56,531,0,0
2019-12-17 11:37:00-05:00,113.52,113.52,113.52,113.52,211,0,0
2019-12-17 11:38:00-05:00,113.59,113.59,113.59,113.59,210,0,0
2019-12-17 11:39:00-05:00,113.57,113.57,113.57,113.57,408,0,0
2019-12-17 11:41:00-05:00,113.61,113.61,113.55,113.55,966,0,0
2019-12-17 11:43:00-05:00,113.61,113.61,113.61,113.61,314,0,0
2019-12-17 11:45:00-05:00,113.63,113.64,113.57,113.6,2695,0,0
2019-12-17 11:46:00-05:00,113.62,113.62,113.62,113.62,797,0,0
2019-12-17 11:47:00-05:00,113.6,113.6,113.56,113.56,891,0,0
2019-12-17 11:48:00-05:00,113.61,113.61,113.61,113.61,414,0,0
2019-12-17 11:49:00-05:00,113.62,113.63,113.61,113.61,1462,0,0
2019-12-17 11:53:00-05:00,113.58,113.58,113.58,113.58,338,0,0
2019-12-17 11:57:00-05:00,113.53,113.53,113.53,113.53,686,0,0
2019-12-17 11:58:00-05:00,113.54,113.59,113.54,113.59,338,0,0
2019-12-17 11:59:00-05:00,113.48,113.48,113.48,113.48,346,0,0
2019-12-17 12:01:00-05:00,113.57,113.57,113.57,113.57,447,0,0
2019-12-17 12:03:00-05:00,113.6,113.62,113.58,113.62,1264,0,0
2019-12-17 12:05:00-05:00,113.6,113.6,113.59,113.59,513,0,0
2019-12-17 12:06:00-05:00,113.62,113.62,113.62,113.62,130,0,0
2019-12-17 12:07:00-05:00,113.57,113.57,113.57,113.57,566,0,0
2019-12-17 12:10:00-05:00,113.52,113.52,113.5,113.5,235,0,0
2019-12-17 12:13:00-05:00,113.57,113.57,113.57,113.57,130,0,0
2019-12-17 12:14:00-05:00,113.59,113.61,113.59,113.59,879,0,0
2019-12-17 12:15:00-05:00,113.58,113.58,113.58,113.58,181,0,0
2019-12-17 12:17:00-05:00,113.62,113.62,113.58,113.58,507,0,0
2019-12-17 12:18:00-05:00,113.58,113.59,113.58,113.59,309,0,0
2019-12-17 12:19:00-05:00,113.54,113.54,113.54,113.54,464,0,0
2019-12-17 12:25:00-05:00,113.6,113.6,113.6,113.6,111,0,0
2019-12-17 12:26:00-05:00,113.61,113.61,113.6,113.6,300,0,0
2019-12-17 12:27:00-05:00,113.6,113.6,113.56,113.56,758,0,0
2019-12-17 12:29:00-05:00,113.6,113.6,113.6,113.6,131,0,0
2019-12-17 12:30:00-05:00,113.59,113.59,113.59,113.59,121,0,0
2019-12-17 12:31:00-05:00,113.59,113.59,113.59,113.59,237,0,0
2019-12-17 12:32:00-05:00,113.57,113.57,113.57,113.57,446,0,0
2019-12-17 12:34:00-05:00,113.6,113.61,113.58,113.61,1022,0,0
2019-12-17 12:38:00-05:00,113.58,113.6,113.58,113.6,1186,0,0
2019-12-17 12:40:00-05:00,113.58,113.58,113.58,113.58,129,0,0
2019-12-17 12:43:00-05:00,113.61,113.61,113.57,113.6,1086,0,0
2019-12-17 12:44:00-05:00,113.64,113.64,113.57,113.57,1064,0,0
2019-12-17 12:45:00-05:00,113.61,113.61,113.55,113.55,1461,0,0
2019-12-17 12:46:00-05:00,113.61,113.61,113.61,113.61,340,0,0
2019-12-17 12:47:00-05:00,113.65,113.66,113.63,113.63,551,0,0
2019-12-17 12:48:00-05:00,113.67,113.69,113.64,113.69,1263,0,0
2019-12-17 12:49:00-05:00,113.68,113.7,113.68,113.69,1316,0,0
2019-12-17 12:51:00-05:00,113.77,113.77,113.77,113.77,301,0,0
2019-12-17 12:52:00-05:00,113.79,113.8,113.7,113.7,11946,0,0
2019-12-17 12:55:00-05:00,113.75,113.75,113.75,113.75,135,0,0
2019-12-17 12:56:00-05:00,113.71,113.71,113.71,113.71,436,0,0
2019-12-17 12:58:00-05:00,113.71,113.71,113.71,113.71,146,0,0
2019-12-17 12:59:00-05:00,113.79,113.79,113.79,113.79,429,0,0
2019-12-17 13:05:00-05:00,113.72,113.72,113.7,113.71,747,0,0
2019-12-17 13:06:00-05:00,113.72,113.72,113.72,113.72,260,0,0
2019-12-17 13:09:00-05:00,113.77,113.77,113.75,113.75,358,0,0
2019-12-17 13:10:00-05:00,113.73,113.73,113.66,113.66,228,0,0
2019-12-17 13:11:00-05:00,113.69,113.69,113.69,113.69,101,0,0
2019-12-17 13:12:00-05:00,113.7,113.7,113.61,113.61,1547,0,0
2019-12-17 13:14:00-05:00,113.62,113.62,113.62,113.62,510,0,0
2019-12-17 13:15:00-05:00,113.64,113.64,113.64,113.64,570,0,0
2019-12-17 13:17:00-05:00,113.62,113.62,113.61,113.61,869,0,0
2019-12-17 13:22:00-05:00,113.56,113.58,113.56,113.58,226,0,0
2019-12-17 13:23:00-05:00,113.55,113.55,113.55,113.55,601,0,0
2019-12-17 13:26:00-05:00,113.44,113.44,113.44,113.44,462,0,0
2019-12-17 13:29:00-05:00,113.46,113.46,113.46,113.46,265,0,0
2019-12-17 13:31:00-05:00,113.43,113.43,113.38,113.38,400,0,0
2019-12-17 13:32:00-05:00,113.38,113.42,113.38,113.39,494,0,0
2019-12-17 13:33:00-05:00,113.46,113.47,113.46,113.47,684,0,0
2019-12-17 13:36:00-05:00,113.47,113.47,113.47,113.47,257,0,0
2019-12-17 13:37:00-05:00,113.49,113.49,113.49,113.49,140,0,0
2019-12-17 13:38:00-05:00,113.49,113.49,113.49,113.49,244,0,0
2019-12-17 13:39:00-05:00,113.46,113.46,113.46,113.46,116,0,0
2019-12-17 13:40:00-05:00,113.5,113.5,113.49,113.49,484,0,0
2019-12-17 13:41:00-05:00,113.49,113.49,113.49,113.49,110,0,0
2019-12-17 13:43:00-05:00,113.47,113.47,113.45,113.45,786,0,0
2019-12-17 13:44:00-05:00,113.42,113.42,113.41,113.41,432,0,0
2019-12-17 13:45:00-05:00,113.43,113.43,113.43,113.43,136,0,0
2019-12-17 13:46:00-05:00,113.43,113.43,113.43,113.43,255,0,0
2019-12-17 13:48:00-05:00,113.43,113.46,113.43,113.43,917,0,0
2019-12-17 13:50:00-05:00,113.43,113.43,113.4,113.4,631,0,0
2019-12-17 13:52:00-05:00,113.45,113.45,113.45,113.45,115,0,0
2019-12-17 13:53:00-05:00,113.44,113.44,113.43,113.43,418,0,0
2019-12-17 13:54:00-05:00,113.44,113.44,113.44,113.44,215,0,0
2019-12-17 13:55:00-05:00,113.43,113.43,113.39,113.39,1093,0,0
2019-12-17 13:56:00-05:00,113.4,113.41,113.4,113.4,690,0,0
2019-12-17 14:00:00-05:00,113.52,113.55,113.52,113.55,1200,0,0
2019-12-17 14:02:00-05:00,113.53,113.53,113.52,113.52,524,0,0
2019-12-17 14:04:00-05:00,113.54,113.54,113.54,113.54,437,0,0
2019-12-17 14:05:00-05:00,113.53,113.53,113.53,113.53,132,0,0
2019-12-17 14:06:00-05:00,113.58,113.58,113.58,113.58,976,0,0
2019-12-17 14:08:00-05:00,113.59,113.59,113.58,113.58,451,0,0
2019-12-17 14:09:00-05:00,113.59,113.59,113.57,113.57,733,0,0
2019-12-17 14:10:00-05:00,113.56,113.56,113.56,113.56,302,0,0
2019-12-17 14:13:00-05:00,113.56,113.56,113.56,113.56,379,0,0
2019-12-17 14:15:00-05:00,113.6,113.6,113.6,113.6,329,0,0
2019-12-17 14:16:00-05:00,113.56,113.59,113.56,113.59,521,0,0
2019-12-17 14:17:00-05:00,113.61,113.61,113.61,113.61,411,0,0
2019-12-17 14:20:00-05:00,113.56,113.56,113.55,113.55,572,0,0
2019-12-17 14:23:00-05:00,113.54,113.54,113.54,113.54,100,0,0
2019-12-17 14:24:00-05:00,113.59,113.68,113.59,113.68,582,0,0
2019-12-17 14:28:00-05:00,113.56,113.56,113.55,113.55,565,0,0
2019-12-17 14:29:00-05:00,113.54,113.54,113.46,113.46,1130,0,0
2019-12-17 14:30:00-05:00,113.51,113.54,113.5,113.5,600,0,0
2019-12-17 14:33:00-05:00,113.46,113.46,113.43,113.43,419,0,0
2019-12-17 14:35:00-05:00,113.45,113.45,113.45,113.45,292,0,0
2019-12-17 14:36:00-05:00,113.46,113.48,113.46,113.48,361,0,0
2019-12-17 14:40:00-05:00,113.46,113.46,113.46,113.46,688,0,0
2019-12-17 14:46:00-05:00,113.48,113.48,113.48,113.48,415,0,0
2019-12-17 14:47:00-05:00,113.48,113.48,113.44,113.44,895,0,0
2019-12-17 14:48:00-05:00,113.57,113.57,113.57,113.57,216,0,0
2019-12-17 14:51:00-05:00,113.54,113.55,113.51,113.53,1005,0,0
2019-12-17 14:55:00-05:00,113.44,113.44,113.43,113.43,429,0,0
2019-12-17 14:56:00-05:00,113.49,113.49,113.49,113.49,252,0,0
2019-12-17 14:57:00-05:00,113.51,113.51,113.51,113.51,143,0,0
2019-12-17 14:59:00-05:00,113.49,113.49,113.47,113.47,523,0,0
2019-12-17 15:00:00-05:00,113.48,113.48,113.43,113.43,2169,0,0
2019-12-17 15:02:00-05:00,113.5,113.5,113.5,113.5,112,0,0
2019-12-17 15:03:00-05:00,113.45,113.45,113.45,113.45,573,0,0
2019-12-17 15:05:00-05:00,113.47,113.47,113.43,113.43,2903,0,0
2019-12-17 15:07:00-05:00,113.41,113.41,113.41,113.41,355,0,0
2019-12-17 15:09:00-05:00,113.43,113.43,113.4,113.4,567,0,0
2019-12-17 15:10:00-05:00,113.39,113.39,113.39,113.39,240,0,0
2019-12-17 15:12:00-05:00,113.35,113.35,113.35,113.35,119,0,0
2019-12-17 15:13:00-05:00,113.37,113.37,113.35,113.35,729,0,0
2019-12-17 15:15:00-05:00,113.33,113.34,113.33,113.34,721,0,0
2019-12-17 15:17:00-05:00,113.3,113.38,113.06,113.16,12045,0,0
2019-12-17 15:18:00-05:00,113.16,113.16,113.16,113.16,270,0,0
2019-12-17 15:19:00-05:00,113.16,113.16,113.16,113.16,101,0,0
2019-12-17 15:20:00-05:00,113.18,113.31,113.18,113.31,1926,0,0
2019-12-17 15:21:00-05:00,113.34,113.38,113.34,113.38,502,0,0
2019-12-17 15:22:00-05:00,113.33,113.34,113.33,113.34,333,0,0
2019-12-17 15:24:00-05:00,113.35,113.38,113.35,113.38,393,0,0
2019-12-17 15:26:00-05:00,113.39,113.39,113.39,113.39,895,0,0
2019-12-17 15:27:00-05:00,113.43,113.43,113.43,113.43,300,0,0
2019-12-17 15:28:00-05:00,113.45,113.49,113.45,113.49,877,0,0
2019-12-17 15:29:00-05:00,113.43,113.43,113.43,113.43,421,0,0
2019-12-17 15:30:00-05:00,113.42,113.42,113.39,113.39,803,0,0
2019-12-17 15:31:00-05:00,113.42,113.42,113.42,113.42,109,0,0
2019-12-17 15:32:00-05:00,113.42,113.44,113.42,113.44,924,0,0
2019-12-17 15:33:00-05:00,113.39,113.39,113.33,113.33,872,0,0
2019-12-17 15:34:00-05:00,113.3,113.31,113.3,113.31,787,0,0
2019-12-17 15:36:00-05:00,113.34,113.34,113.34,113.34,212,0,0
2019-12-17 15:37:00-05:00,113.32,113.32,113.32,113.32,604,0,0
2019-12-17 15:38:00-05:00,113.31,113.31,113.31,113.31,519,0,0
2019-12-17 15:39:00-05:00,113.27,113.31,113.27,113.31,836,0,0
2019-12-17 15:41:00-05:00,113.29,113.29,113.29,113.29,203,0,0
2019-12-17 15:42:00-05:00,113.28,113.29,113.28,113.29,826,0,0
2019-12-17 15:43:00-05:00,113.29,113.29,113.2,113.2,2290,0,0
2019-12-17 15:44:00-05:00,113.23,113.23,113.22,113.22,392,0,0
2019-12-17 15:45:00-05:00,113.24,113.24,113.24,113.24,316,0,0
2019-12-17 15:46:00-05:00,113.21,113.21,113.21,113.21,843,0,0
2019-12-17 15:47:00-05:00,113.25,113.25,113.25,113.25,458,0,0
2019-12-17 15:48:00-05:00,113.24,113.24,113.14,113.14,1791,0,0
2019-12-17 15:49:00-05:00,113.14,113.14,113.09,113.12,1592,0,0
2019-12-17 15:50:00-05:00,113.14,113.22,113.14,113.18,2724,0,0
2019-12-17 15:51:00-05:00,113.2,113.2,113.09,113.1,2334,0,0
2019-12-17 15:52:00-05:00,113.14,113.14,113.1,113.1,1038,0,0
2019-12-17 15:53:00-05:00,113.17,113.21,113.08,113.21,2390,0,0
2019-12-17 15:54:00-05:00,113.16,113.18,113.13,113.18,2461,0,0
2019-12-17 15:55:00-05:00,113.2,113.21,113.17,113.19,3443,0,0
2019-12-17 15:56:00-05:00,113.21,113.28,113.17,113.28,3407,0,0
2019-12-17 15:57:00-05:00,113.28,113.3,113.24,113.25,4823,0,0
2019-12-17 15:58:00-05:00,113.25,113.33,113.24,113.33,3413,0,0
2019-12-17 15:59:00-05:00,113.31,113.39,113.23,113.33,7839,0,0
2019-12-18 09:30:00-05:00,113.35,113.35,113.35,113.35,978,0,0
2019-12-18 09:31:00-05:00,113.32,113.32,113.32,113.32,125,0,0
2019-12-18 09:32:00-05:00,113.36,113.36,113.32,113.32,708,0,0
2019-12-18 09:36:00-05:00,113.08,113.08,113.08,113.08,213,0,0
2019-12-18 09:37:00-05:00,113.03,113.03,113.03,113.03,185,0,0
2019-12-18 09:38:00-05:00,113.1,113.14,113.1,113.14,1124,0,0
2019-12-18 09:39:00-05:00,113.04,113.04,113.04,113.04,363,0,0
2019-12-18 09:40:00-05:00,113.12,113.12,113.11,113.12,1761,0,0
2019-12-18 09:42:00-05:00,113.13,113.13,113.13,113.13,181,0,0
2019-12-18 09:45:00-05:00,112.95,112.95,112.95,112.95,439,0,0
2019-12-18 09:50:00-05:00,112.78,112.78,112.78,112.78,246,0,0
2019-12-18 09:51:00-05:00,112.5,112.5,112.5,112.5,199,0,0
2019-12-18 09:54:00-05:00,112.82,112.85,112.82,112.85,604,0,0
2019-12-18 09:55:00-05:00,112.73,112.73,112.73,112.73,163,0,0
2019-12-18 09:57:00-05:00,112.83,112.9,112.82,112.89,2871,0,0
2019-12-18 10:04:00-05:00,112.9,112.91,112.9,112.91,627,0,0
2019-12-18 10:05:00-05:00,113.03,113.04,113.03,113.04,1755,0,0
2019-12-18 10:10:00-05:00,112.88,112.89,112.88,112.89,778,0,0
2019-12-18 10:13:00-05:00,112.9,112.9,112.88,112.88,433,0,0
2019-12-18 10:14:00-05:00,112.92,112.92,112.92,112.92,413,0,0
2019-12-18 10:17:00-05:00,112.89,112.9,112.86,112.89,937,0,0
2019-12-18 10:20:00-05:00,112.9,112.9,112.9,112.9,123,0,0
2019-12-18 10:21:00-05:00,112.96,112.96,112.93,112.93,636,0,0
2019-12-18 10:23:00-05:00,113.02,113.02,113.02,113.02,101,0,0
2019-12-18 10:24:00-05:00,113.05,113.05,113.05,113.05,103,0,0
2019-12-18 10:25:00-05:00,113.1,113.1,113.03,113.03,304,0,0
2019-12-18 10:26:00-05:00,113.04,113.12,112.9,112.9,7497,0,0
2019-12-18 10:29:00-05:00,112.88,112.92,112.88,112.92,734,0,0
2019-12-18 10:36:00-05:00,112.83,112.83,112.81,112.81,916,0,0
2019-12-18 10:41:00-05:00,112.83,112.83,112.83,112.83,251,0,0
2019-12-18 10:42:00-05:00,112.9,112.92,112.83,112.83,713,0,0
2019-12-18 10:43:00-05:00,112.82,112.82,112.82,112.82,632,0,0
2019-12-18 10:45:00-05:00,112.71,112.71,112.67,112.67,210,0,0
2019-12-18 10:47:00-05:00,112.73,112.75,112.63,112.75,881,0,0
2019-12-18 10:51:00-05:00,112.79,112.79,112.79,112.79,102,0,0
2019-12-18 10:52:00-05:00,112.75,112.75,112.75,112.75,163,0,0
2019-12-18 10:55:00-05:00,112.65,112.65,112.54,112.54,1126,0,0
2019-12-18 10:58:00-05:00,112.47,112.52,112.47,112.52,429,0,0
2019-12-18 11:00:00-05:00,112.53,112.57,112.53,112.57,345,0,0
2019-12-18 11:01:00-05:00,112.49,112.49,112.49,112.49,753,0,0
2019-12-18 11:03:00-05:00,112.56,112.58,112.56,112.58,522,0,0
2019-12-18 11:05:00-05:00,112.57,112.57,112.57,112.57,200,0,0
2019-12-18 11:06:00-05:00,112.56,112.56,112.56,112.56,269,0,0
2019-12-18 11:08:00-05:00,112.52,112.6,112.52,112.6,739,0,0
2019-12-18 11:10:00-05:00,112.58,112.58,112.58,112.58,467,0,0
2019-12-18 11:11:00-05:00,112.58,112.58,112.58,112.58,508,0,0
2019-12-18 11:15:00-05:00,112.75,112.75,112.75,112.75,468,0,0
2019-12-18 11:17:00-05:00,112.75,112.75,112.75,112.75,820,0,0
2019-12-18 11:18:00-05:00,112.67,112.75,112.67,112.75,519,0,0
2019-12-18 11:20:00-05:00,112.75,112.75,112.75,112.75,663,0,0
2019-12-18 11:21:00-05:00,112.76,112.76,112.76,112.76,150,0,0
2019-12-18 11:25:00-05:00,112.62,112.62,112.62,112.62,102,0,0
2019-12-18 11:28:00-05:00,112.71,112.71,112.71,112.71,200,0,0
2019-12-18 11:29:00-05:00,112.68,112.69,112.68,112.68,927,0,0
2019-12-18 11:31:00-05:00,112.61,112.73,112.61,112.73,973,0,0
2019-12-18 11:32:00-05:00,112.71,112.76,112.7,112.74,1348,0,0
2019-12-18 11:37:00-05:00,112.67,112.67,112.67,112.67,165,0,0
2019-12-18 11:44:00-05:00,112.63,112.64,112.63,112.63,684,0,0
2019-12-18 11:50:00-05:00,112.53,112.53,112.53,112.53,425,0,0
2019-12-18 11:56:00-05:00,112.49,112.49,112.49,112.49,176,0,0
2019-12-18 11:57:00-05:00,112.49,112.49,112.49,112.49,100,0,0
2019-12-18 11:58:00-05:00,112.49,112.54,112.49,112.54,901,0,0
2019-12-18 12:01:00-05:00,112.47,112.47,112.47,112.47,946,0,0
2019-12-18 12:06:00-05:00,112.44,112.44,112.44,112.44,457,0,0
2019-12-18 12:08:00-05:00,112.42,112.42,112.38,112.38,336,0,0
2019-12-18 12:10:00-05:00,112.41,112.41,112.39,112.39,696,0,0
2019-12-18 12:17:00-05:00,112.45,112.45,112.41,112.41,600,0,0
2019-12-18 12:19:00-05:00,112.42,112.42,112.4,112.4,229,0,0
2019-12-18 12:25:00-05:00,112.42,112.42,112.37,112.42,438,0,0
2019-12-18 12:26:00-05:00,112.41,112.41,112.36,112.4,678,0,0
2019-12-18 12:27:00-05:00,112.4,112.4,112.4,112.4,100,0,0
2019-12-18 12:29:00-05:00,112.45,112.45,112.45,112.45,267,0,0
2019-12-18 12:31:00-05:00,112.5,112.5,112.5,112.5,475,0,0
2019-12-18 12:33:00-05:00,112.55,112.55,112.55,112.55,653,0,0
2019-12-18 12:39:00-05:00,112.54,112.54,112.53,112.53,284,0,0
2019-12-18 12:42:00-05:00,112.49,112.59,112.49,112.59,1117,0,0
2019-12-18 12:51:00-05:00,112.6,112.6,112.54,112.54,1256,0,0
2019-12-18 12:52:00-05:00,112.6,112.6,112.56,112.56,262,0,0
2019-12-18 12:55:00-05:00,112.6,112.6,112.57,112.57,337,0,0
2019-12-18 12:59:00-05:00,112.58,112.58,112.58,112.58,230,0,0
2019-12-18 13:01:00-05:00,112.58,112.58,112.58,112.58,273,0,0
2019-12-18 13:04:00-05:00,112.62,112.66,112.62,112.66,743,0,0
2019-12-18 13:12:00-05:00,112.72,112.72,112.72,112.72,100,0,0
2019-12-18 13:13:00-05:00,112.69,112.7,112.66,112.68,1062,0,0
2019-12-18 13:14:00-05:00,112.74,112.74,112.71,112.71,538,0,0
2019-12-18 13:16:00-05:00,112.76,112.76,112.73,112.75,1073,0,0
2019-12-18 13:17:00-05:00,112.75,112.75,112.75,112.75,396,0,0
2019-12-18 13:20:00-05:00,112.72,112.72,112.72,112.72,230,0,0
2019-12-18 13:21:00-05:00,112.7,112.72,112.7,112.7,711,0,0
2019-12-18 13:25:00-05:00,112.69,112.69,112.67,112.67,533,0,0
2019-12-18 13:32:00-05:00,112.68,112.69,112.65,112.65,1055,0,0
2019-12-18 13:34:00-05:00,112.65,112.65,112.58,112.58,897,0,0
2019-12-18 13:35:00-05:00,112.67,112.71,112.67,112.7,485,0,0
2019-12-18 13:36:00-05:00,112.72,112.72,112.72,112.72,128,0,0
2019-12-18 13:37:00-05:00,112.69,112.69,112.69,112.69,442,0,0
2019-12-18 13:42:00-05:00,112.73,112.73,112.72,112.72,413,0,0
2019-12-18 13:43:00-05:00,112.75,112.75,112.75,112.75,107,0,0
2019-12-18 13:44:00-05:00,112.72,112.73,112.72,112.72,398,0,0
2019-12-18 13:45:00-05:00,112.74,112.74,112.73,112.73,264,0,0
2019-12-18 13:49:00-05:00,112.75,112.76,112.75,112.75,562,0,0
2019-12-18 13:50:00-05:00,112.75,112.75,112.75,112.75,139,0,0
2019-12-18 13:52:00-05:00,112.74,112.74,112.74,112.74,169,0,0
2019-12-18 13:53:00-05:00,112.73,112.75,112.72,112.72,1372,0,0
2019-12-18 13:54:00-05:00,112.71,112.71,112.71,112.71,444,0,0
2019-12-18 13:55:00-05:00,112.74,112.74,112.74,112.74,316,0,0
2019-12-18 13:57:00-05:00,112.71,112.71,112.71,112.71,145,0,0
2019-12-18 13:59:00-05:00,112.69,112.69,112.65,112.67,473,0,0
2019-12-18 14:00:00-05:00,112.69,112.69,112.69,112.69,617,0,0
2019-12-18 14:03:00-05:00,112.66,112.66,112.66,112.66,112,0,0
2019-12-18 14:06:00-05:00,112.7,112.7,112.7,112.7,471,0,0
2019-12-18 14:07:00-05:00,112.71,112.74,112.71,112.74,346,0,0
2019-12-18 14:08:00-05:00,112.75,112.75,112.71,112.71,206,0,0
2019-12-18 14:09:00-05:00,112.7,112.75,112.7,112.75,477,0,0
2019-12-18 14:10:00-05:00,112.72,112.72,112.72,112.72,100,0,0
2019-12-18 14:11:00-05:00,112.75,112.75,112.73,112.73,584,0,0
2019-12-18 14:12:00-05:00,112.72,112.72,112.72,112.72,128,0,0
2019-12-18 14:14:00-05:00,112.72,112.72,112.72,112.72,313,0,0
2019-12-18 14:15:00-05:00,112.67,112.67,112.66,112.66,211,0,0
2019-12-18 14:18:00-05:00,112.67,112.67,112.66,112.66,215,0,0
2019-12-18 14:22:00-05:00,112.62,112.62,112.62,112.62,304,0,0
2019-12-18 14:24:00-05:00,112.63,112.63,112.63,112.63,214,0,0
2019-12-18 14:28:00-05:00,112.58,112.58,112.57,112.57,235,0,0
2019-12-18 14:29:00-05:00,112.57,112.6,112.56,112.59,941,0,0
2019-12-18 14:30:00-05:00,112.57,112.61,112.55,112.57,1824,0,0
2019-12-18 14:31:00-05:00,112.61,112.62,112.61,112.61,1231,0,0
2019-12-18 14:32:00-05:00,112.7,112.7,112.68,112.68,245,0,0
2019-12-18 14:36:00-05:00,112.8,112.8,112.75,112.75,1066,0,0
2019-12-18 14:37:00-05:00,112.68,112.68,112.68,112.68,213,0,0
2019-12-18 14:44:00-05:00,112.74,112.74,112.74,112.74,105,0,0
2019-12-18 14:45:00-05:00,112.75,112.75,112.75,112.75,156,0,0
2019-12-18 14:47:00-05:00,112.76,112.78,112.76,112.77,525,0,0
2019-12-18 14:48:00-05:00,112.75,112.75,112.75,112.75,823,0,0
2019-12-18 14:51:00-05:00,112.74,112.78,112.74,112.78,1009,0,0
2019-12-18 14:53:00-05:00,112.74,112.74,112.72,112.72,363,0,0
2019-12-18 14:54:00-05:00,112.72,112.72,112.72,112.72,188,0,0
2019-12-18 14:57:00-05:00,112.7,112.74,112.7,112.74,706,0,0
2019-12-18 15:00:00-05:00,112.76,112.76,112.76,112.76,596,0,0
2019-12-18 15:02:00-05:00,112.76,112.76,112.76,112.76,483,0,0
2019-12-18 15:03:00-05:00,112.75,112.75,112.75,112.75,521,0,0
2019-12-18 15:07:00-05:00,112.72,112.72,112.72,112.72,681,0,0
2019-12-18 15:08:00-05:00,112.74,112.76,112.74,112.75,666,0,0
2019-12-18 15:10:00-05:00,112.8,112.8,112.75,112.75,1227,0,0
2019-12-18 15:12:00-05:00,112.68,112.68,112.68,112.68,223,0,0
2019-12-18 15:14:00-05:00,112.69,112.69,112.69,112.69,385,0,0
2019-12-18 15:15:00-05:00,112.72,112.75,112.7,112.75,509,0,0
2019-12-18 15:16:00-05:00,112.75,112.75,112.75,112.75,300,0,0
2019-12-18 15:17:00-05:00,112.76,112.76,112.76,112.76,475,0,0
2019-12-18 15:18:00-05:00,112.75,112.75,112.75,112.75,289,0,0
2019-12-18 15:19:00-05:00,112.75,112.77,112.75,112.77,687,0,0
2019-12-18 15:21:00-05:00,112.76,112.76,112.75,112.75,524,0,0
2019-12-18 15:22:00-05:00,112.7,112.7,112.67,112.67,1078,0,0
2019-12-18 15:24:00-05:00,112.65,112.67,112.65,112.67,743,0,0
2019-12-18 15:28:00-05:00,112.75,112.75,112.71,112.71,582,0,0
2019-12-18 15:30:00-05:00,112.75,112.75,112.75,112.75,248,0,0
2019-12-18 15:31:00-05:00,112.71,112.73,112.71,112.73,507,0,0
2019-12-18 15:33:00-05:00,112.72,112.74,112.72,112.74,1034,0,0
2019-12-18 15:36:00-05:00,112.74,112.74,112.74,112.74,204,0,0
2019-12-18 15:38:00-05:00,112.76,112.76,112.75,112.75,413,0,0
2019-12-18 15:39:00-05:00,112.76,112.78,112.76,112.78,279,0,0
2019-12-18 15:40:00-05:00,112.79,112.79,112.76,112.78,774,0,0
2019-12-18 15:41:00-05:00,112.76,112.81,112.76,112.78,1410,0,0
2019-12-18 15:42:00-05:00,112.77,112.78,112.74,112.76,1608,0,0
2019-12-18 15:43:00-05:00,112.75,112.75,112.75,112.75,555,0,0
2019-12-18 15:44:00-05:00,112.74,112.74,112.72,112.74,1167,0,0
2019-12-18 15:46:00-05:00,112.74,112.74,112.74,112.74,258,0,0
2019-12-18 15:47:00-05:00,112.73,112.76,112.73,112.76,669,0,0
2019-12-18 15:48:00-05:00,112.73,112.74,112.73,112.74,564,0,0
2019-12-18 15:49:00-05:00,112.75,112.8,112.75,112.78,2282,0,0
2019-12-18 15:50:00-05:00,112.82,112.82,112.82,112.82,401,0,0
2019-12-18 15:51:00-05:00,112.86,112.88,112.86,112.87,1245,0,0
2019-12-18 15:52:00-05:00,112.86,112.88,112.81,112.88,1969,0,0
2019-12-18 15:53:00-05:00,112.87,112.88,112.87,112.88,350,0,0
2019-12-18 15:54:00-05:00,112.92,112.96,112.88,112.93,2076,0,0
2019-12-18 15:55:00-05:00,112.92,112.97,112.92,112.94,1165,0,0
2019-12-18 15:56:00-05:00,112.96,113.01,112.95,112.97,3383,0,0
2019-12-18 15:57:00-05:00,112.97,113.01,112.97,113.0,2034,0,0
2019-12-18 15:58:00-05:00,113.0,113.04,113.0,113.01,2358,0,0
2019-12-18 15:59:00-05:00,113.03,113.09,113.01,113.06,16870,0,0
2019-12-19 09:30:00-05:00,113.16,113.16,113.16,113.16,737,0,0
2019-12-19 09:39:00-05:00,112.96,112.96,112.92,112.93,840,0,0
2019-12-19 09:41:00-05:00,113.02,113.03,113.02,113.02,1876,0,0
2019-12-19 09:43:00-05:00,113.43,113.43,113.43,113.43,100,0,0
2019-12-19 09:45:00-05:00,113.4,113.43,113.13,113.13,1469,0,0
2019-12-19 09:50:00-05:00,113.26,113.26,113.26,113.26,184,0,0
2019-12-19 09:54:00-05:00,113.39,113.39,113.39,113.39,289,0,0
2019-12-19 10:03:00-05:00,113.39,113.39,113.39,113.39,702,0,0
2019-12-19 10:04:00-05:00,113.19,113.19,113.19,113.19,192,0,0
2019-12-19 10:05:00-05:00,113.26,113.26,113.26,113.26,412,0,0
2019-12-19 10:07:00-05:00,113.15,113.15,113.15,113.15,561,0,0
2019-12-19 10:10:00-05:00,113.11,113.11,113.11,113.11,292,0,0
2019-12-19 10:11:00-05:00,113.07,113.08,113.04,113.08,546,0,0
2019-12-19 10:12:00-05:00,113.05,113.05,113.05,113.05,500,0,0
2019-12-19 10:14:00-05:00,113.08,113.08,113.08,113.08,475,0,0
2019-12-19 10:15:00-05:00,113.03,113.03,113.03,113.03,207,0,0
2019-12-19 10:19:00-05:00,113.03,113.03,112.92,112.92,625,0,0
2019-12-19 10:24:00-05:00,112.97,113.03,112.97,113.03,1012,0,0
2019-12-19 10:26:00-05:00,113.17,113.17,113.17,113.17,270,0,0
2019-12-19 10:30:00-05:00,113.29,113.29,113.16,113.17,405,0,0
2019-12-19 10:31:00-05:00,113.25,113.26,113.16,113.26,589,0,0
2019-12-19 10:33:00-05:00,113.25,113.26,113.25,113.26,427,0,0
2019-12-19 10:35:00-05:00,113.16,113.17,113.16,113.17,696,0,0
2019-12-19 10:36:00-05:00,113.04,113.04,113.04,113.04,130,0,0
2019-12-19 10:38:00-05:00,113.03,113.03,113.03,113.03,127,0,0
2019-12-19 10:41:00-05:00,113.03,113.14,113.03,113.14,1166,0,0
2019-12-19 10:47:00-05:00,113.21,113.22,113.19,113.21,1147,0,0
2019-12-19 10:48:00-05:00,113.17,113.17,113.17,113.17,220,0,0
2019-12-19 10:49:00-05:00,113.13,113.13,113.13,113.13,110,0,0
2019-12-19 10:50:00-05:00,113.12,113.12,113.0,113.0,661,0,0
2019-12-19 10:54:00-05:00,112.87,112.87,112.87,112.87,609,0,0
2019-12-19 10:55:00-05:00,112.89,112.97,112.89,112.97,1057,0,0
2019-12-19 10:57:00-05:00,113.0,113.0,113.0,113.0,405,0,0
2019-12-19 10:59:00-05:00,112.96,113.01,112.96,113.01,407,0,0
2019-12-19 11:01:00-05:00,112.86,112.86,112.86,112.86,146,0,0
2019-12-19 11:03:00-05:00,112.86,112.86,112.86,112.86,271,0,0
2019-12-19 11:04:00-05:00,112.83,112.86,112.8,112.8,855,0,0
2019-12-19 11:05:00-05:00,112.81,112.89,112.81,112.89,1107,0,0
2019-12-19 11:07:00-05:00,112.89,112.89,112.89,112.89,100,0,0
2019-12-19 11:09:00-05:00,112.9,112.9,112.9,112.9,101,0,0
2019-12-19 11:11:00-05:00,112.92,112.92,112.92,112.92,100,0,0
2019-12-19 11:12:00-05:00,112.98,112.98,112.98,112.98,100,0,0
2019-12-19 11:14:00-05:00,112.86,112.86,112.86,112.86,242,0,0
2019-12-19 11:16:00-05:00,112.86,112.86,112.86,112.86,354,0,0
2019-12-19 11:17:00-05:00,112.89,112.89,112.89,112.89,100,0,0
2019-12-19 11:18:00-05:00,112.86,112.92,112.86,112.91,1064,0,0
2019-12-19 11:22:00-05:00,113.08,113.08,113.08,113.08,155,0,0
2019-12-19 11:24:00-05:00,113.0,113.0,113.0,113.0,112,0,0
2019-12-19 11:25:00-05:00,113.09,113.13,113.09,113.09,518,0,0
2019-12-19 11:26:00-05:00,113.09,113.09,113.09,113.09,100,0,0
2019-12-19 11:28:00-05:00,113.08,113.08,113.04,113.04,267,0,0
2019-12-19 11:30:00-05:00,113.08,113.22,113.08,113.22,540,0,0
2019-12-19 11:31:00-05:00,113.11,113.11,113.1,113.11,1094,0,0
2019-12-19 11:32:00-05:00,113.07,113.07,113.07,113.07,315,0,0
2019-12-19 11:33:00-05:00,113.03,113.03,113.03,113.03,223,0,0
2019-12-19 11:35:00-05:00,113.11,113.11,113.11,113.11,416,0,0
2019-12-19 11:37:00-05:00,113.02,113.04,113.02,113.04,263,0,0
2019-12-19 11:38:00-05:00,113.09,113.09,113.09,113.09,870,0,0
2019-12-19 11:45:00-05:00,113.18,113.19,113.18,113.19,220,0,0
2019-12-19 11:46:00-05:00,113.15,113.25,113.15,113.25,559,0,0
2019-12-19 11:47:00-05:00,113.21,113.21,113.14,113.14,507,0,0
2019-12-19 11:50:00-05:00,113.14,113.14,113.14,113.14,280,0,0
2019-12-19 11:52:00-05:00,113.15,113.18,113.15,113.18,1019,0,0
2019-12-19 11:55:00-05:00,113.17,113.19,113.17,113.19,816,0,0
2019-12-19 11:56:00-05:00,113.07,113.07,113.07,113.07,121,0,0
2019-12-19 11:58:00-05:00,112.87,112.87,112.87,112.87,373,0,0
2019-12-19 12:04:00-05:00,113.02,113.07,113.02,113.07,546,0,0
2019-12-19 12:08:00-05:00,113.13,113.13,113.04,113.04,320,0,0
2019-12-19 12:10:00-05:00,113.13,113.13,113.13,113.13,483,0,0
2019-12-19 12:13:00-05:00,113.18,113.18,113.18,113.18,468,0,0
2019-12-19 12:14:00-05:00,113.14,113.14,113.14,113.14,366,0,0
2019-12-19 12:16:00-05:00,113.14,113.14,113.14,113.14,117,0,0
2019-12-19 12:19:00-05:00,113.1,113.22,113.1,113.22,652,0,0
2019-12-19 12:21:00-05:00,113.21,113.21,113.19,113.19,420,0,0
2019-12-19 12:23:00-05:00,113.19,113.19,113.19,113.19,661,0,0
2019-12-19 12:31:00-05:00,113.14,113.14,113.14,113.14,102,0,0
2019-12-19 12:32:00-05:00,113.14,113.14,113.13,113.14,351,0,0
2019-12-19 12:33:00-05:00,113.15,113.19,113.15,113.19,743,0,0
2019-12-19 12:39:00-05:00,113.25,113.27,113.25,113.27,654,0,0
2019-12-19 12:40:00-05:00,113.27,113.27,113.27,113.27,437,0,0
2019-12-19 12:44:00-05:00,113.27,113.27,113.25,113.25,948,0,0
2019-12-19 12:48:00-05:00,113.23,113.28,113.23,113.28,933,0,0
2019-12-19 12:51:00-05:00,113.23,113.23,113.23,113.23,366,0,0
2019-12-19 12:53:00-05:00,113.23,113.26,113.23,113.26,424,0,0
2019-12-19 12:56:00-05:00,113.21,113.21,113.21,113.21,548,0,0
2019-12-19 12:57:00-05:00,113.11,113.12,113.11,113.12,377,0,0
2019-12-19 12:58:00-05:00,113.12,113.12,113.12,113.12,437,0,0
2019-12-19 12:59:00-05:00,113.09,113.09,113.09,113.09,103,0,0
2019-12-19 13:00:00-05:00,113.1,113.1,113.1,113.1,375,0,0
2019-12-19 13:03:00-05:00,113.11,113.17,113.11,113.17,687,0,0
2019-12-19 13:04:00-05:00,113.26,113.26,113.26,113.26,291,0,0
2019-12-19 13:07:00-05:00,113.27,113.27,113.27,113.27,105,0,0
2019-12-19 13:08:00-05:00,113.32,113.32,113.32,113.32,186,0,0
2019-12-19 13:09:00-05:00,113.32,113.32,113.32,113.32,100,0,0
2019-12-19 13:10:00-05:00,113.27,113.27,113.27,113.27,543,0,0
2019-12-19 13:11:00-05:00,113.24,113.24,113.21,113.21,834,0,0
2019-12-19 13:15:00-05:00,113.14,113.26,113.14,113.26,454,0,0
2019-12-19 13:18:00-05:00,113.24,113.24,113.24,113.24,508,0,0
2019-12-19 13:20:00-05:00,113.16,113.16,113.16,113.16,381,0,0
2019-12-19 13:25:00-05:00,113.22,113.23,113.22,113.23,867,0,0
2019-12-19 13:29:00-05:00,113.26,113.26,113.26,113.26,206,0,0
2019-12-19 13:30:00-05:00,113.3,113.3,113.29,113.29,807,0,0
2019-12-19 13:32:00-05:00,113.23,113.23,113.23,113.23,100,0,0
2019-12-19 13:34:00-05:00,113.27,113.27,113.27,113.27,108,0,0
2019-12-19 13:35:00-05:00,113.23,113.25,113.23,113.25,814,0,0
2019-12-19 13:37:00-05:00,113.32,113.32,113.32,113.32,100,0,0
2019-12-19 13:39:00-05:00,113.28,113.28,113.28,113.28,137,0,0
2019-12-19 13:40:00-05:00,113.27,113.27,113.27,113.27,200,0,0
2019-12-19 13:41:00-05:00,113.23,113.23,113.23,113.23,249,0,0
2019-12-19 13:45:00-05:00,113.22,113.22,113.22,113.22,240,0,0
2019-12-19 13:47:00-05:00,113.21,113.21,113.21,113.21,119,0,0
2019-12-19 13:49:00-05:00,113.21,113.21,113.21,113.21,944,0,0
2019-12-19 13:53:00-05:00,113.21,113.25,113.21,113.25,1489,0,0
2019-12-19 13:54:00-05:00,113.28,113.28,113.28,113.28,1147,0,0
2019-12-19 13:59:00-05:00,113.29,113.35,113.29,113.31,994,0,0
2019-12-19 14:02:00-05:00,113.31,113.31,113.31,113.31,418,0,0
2019-12-19 14:03:00-05:00,113.36,113.36,113.34,113.34,744,0,0
2019-12-19 14:09:00-05:00,113.33,113.33,113.33,113.33,724,0,0
2019-12-19 14:10:00-05:00,113.35,113.38,113.35,113.36,1276,0,0
2019-12-19 14:16:00-05:00,113.35,113.41,113.35,113.41,826,0,0
2019-12-19 14:18:00-05:00,113.42,113.42,113.42,113.42,457,0,0
2019-12-19 14:19:00-05:00,113.43,113.43,113.38,113.38,1116,0,0
2019-12-19 14:20:00-05:00,113.39,113.39,113.39,113.39,283,0,0
2019-12-19 14:22:00-05:00,113.41,113.42,113.41,113.42,673,0,0
2019-12-19 14:25:00-05:00,113.41,113.41,113.41,113.41,234,0,0
2019-12-19 14:26:00-05:00,113.39,113.39,113.37,113.39,507,0,0
2019-12-19 14:28:00-05:00,113.37,113.41,113.37,113.41,906,0,0
2019-12-19 14:30:00-05:00,113.45,113.46,113.45,113.46,218,0,0
2019-12-19 14:32:00-05:00,113.48,113.48,113.48,113.48,100,0,0
2019-12-19 14:33:00-05:00,113.42,113.42,113.42,113.42,1117,0,0
2019-12-19 14:36:00-05:00,113.27,113.27,113.27,113.27,649,0,0
2019-12-19 14:39:00-05:00,113.3,113.3,113.3,113.3,370,0,0
2019-12-19 14:40:00-05:00,113.25,113.25,113.25,113.25,169,0,0
2019-12-19 14:41:00-05:00,113.26,113.26,113.26,113.26,280,0,0
2019-12-19 14:42:00-05:00,113.26,113.28,113.26,113.28,933,0,0
2019-12-19 14:46:00-05:00,113.28,113.28,113.28,113.28,271,0,0
2019-12-19 14:48:00-05:00,113.24,113.24,113.24,113.24,106,0,0
2019-12-19 14:49:00-05:00,113.29,113.34,113.29,113.34,1371,0,0
2019-12-19 14:51:00-05:00,113.35,113.36,113.35,113.36,3349,0,0
2019-12-19 14:52:00-05:00,113.33,113.33,113.33,113.33,546,0,0
2019-12-19 14:54:00-05:00,113.33,113.33,113.33,113.33,339,0,0
2019-12-19 14:56:00-05:00,113.32,113.32,113.32,113.32,1112,0,0
2019-12-19 14:58:00-05:00,113.3,113.3,113.3,113.3,100,0,0
2019-12-19 14:59:00-05:00,113.3,113.3,113.3,113.3,524,0,0
2019-12-19 15:01:00-05:00,113.29,113.29,113.29,113.29,357,0,0
2019-12-19 15:03:00-05:00,113.33,113.33,113.33,113.33,1027,0,0
2019-12-19 15:04:00-05:00,113.34,113.34,113.34,113.34,362,0,0
2019-12-19 15:05:00-05:00,113.38,113.38,113.38,113.38,302,0,0
2019-12-19 15:08:00-05:00,113.4,113.4,113.4,113.4,101,0,0
2019-12-19 15:09:00-05:00,113.35,113.35,113.35,113.35,1223,0,0
2019-12-19 15:11:00-05:00,113.28,113.28,113.28,113.28,1214,0,0
2019-12-19 15:13:00-05:00,113.25,113.25,113.25,113.25,247,0,0
2019-12-19 15:15:00-05:00,113.29,113.29,113.29,113.29,449,0,0
2019-12-19 15:17:00-05:00,113.29,113.29,113.29,113.29,868,0,0
2019-12-19 15:18:00-05:00,113.26,113.26,113.26,113.26,354,0,0
2019-12-19 15:21:00-05:00,113.26,113.26,113.26,113.26,1523,0,0
2019-12-19 15:23:00-05:00,113.28,113.29,113.28,113.29,491,0,0
2019-12-19 15:24:00-05:00,113.26,113.26,113.26,113.26,236,0,0
2019-12-19 15:25:00-05:00,113.22,113.22,113.22,113.22,209,0,0
2019-12-19 15:26:00-05:00,113.24,113.28,113.24,113.24,1176,0,0
2019-12-19 15:27:00-05:00,113.18,113.18,113.18,113.18,193,0,0
2019-12-19 15:28:00-05:00,113.18,113.18,113.18,113.18,303,0,0
2019-12-19 15:29:00-05:00,113.14,113.14,113.14,113.14,294,0,0
2019-12-19 15:30:00-05:00,113.16,113.16,113.13,113.16,1458,0,0
2019-12-19 15:32:00-05:00,113.1,113.13,113.08,113.08,1028,0,0
2019-12-19 15:33:00-05:00,113.04,113.04,113.04,113.04,141,0,0
2019-12-19 15:34:00-05:00,113.07,113.07,113.07,113.07,415,0,0
2019-12-19 15:35:00-05:00,113.08,113.08,113.07,113.07,459,0,0
2019-12-19 15:36:00-05:00,113.08,113.1,113.08,113.1,545,0,0
2019-12-19 15:37:00-05:00,113.08,113.09,113.04,113.04,1094,0,0
2019-12-19 15:38:00-05:00,113.03,113.03,113.03,113.03,115,0,0
2019-12-19 15:39:00-05:00,113.06,113.12,113.03,113.12,2777,0,0
2019-12-19 15:40:00-05:00,113.11,113.11,113.09,113.1,964,0,0
2019-12-19 15:41:00-05:00,113.13,113.13,113.13,113.13,211,0,0
2019-12-19 15:42:00-05:00,113.16,113.17,113.16,113.16,654,0,0
2019-12-19 15:43:00-05:00,113.15,113.15,113.15,113.15,1305,0,0
2019-12-19 15:44:00-05:00,113.15,113.16,113.14,113.16,838,0,0
2019-12-19 15:45:00-05:00,113.14,113.16,113.11,113.11,2311,0,0
2019-12-19 15:46:00-05:00,113.04,113.04,113.01,113.01,1369,0,0
2019-12-19 15:47:00-05:00,113.0,113.02,112.97,113.02,1841,0,0
2019-12-19 15:48:00-05:00,113.05,113.05,113.05,113.05,1273,0,0
2019-12-19 15:49:00-05:00,113.02,113.02,113.0,113.0,590,0,0
2019-12-19 15:50:00-05:00,112.95,113.02,112.95,113.0,2724,0,0
2019-12-19 15:51:00-05:00,113.01,113.07,113.01,113.05,1153,0,0
2019-12-19 15:52:00-05:00,113.03,113.06,113.03,113.06,1733,0,0
2019-12-19 15:53:00-05:00,113.03,113.04,112.99,112.99,1224,0,0
2019-12-19 15:54:00-05:00,113.01,113.01,112.96,113.01,3793,0,0
2019-12-19 15:55:00-05:00,113.02,113.08,113.02,113.08,2986,0,0
2019-12-19 15:56:00-05:00,113.09,113.15,113.08,113.14,2486,0,0
2019-12-19 15:57:00-05:00,113.13,113.13,113.1,113.13,1617,0,0
2019-12-19 15:58:00-05:00,113.13,113.19,113.13,113.17,3518,0,0
2019-12-19 15:59:00-05:00,113.21,113.27,113.19,113.25,6210,0,0
2019-12-20 09:30:00-05:00,113.72,113.72,113.72,113.72,80699,0,0
2019-12-20 09:34:00-05:00,114.19,114.19,114.19,114.19,427,0,0
2019-12-20 09:35:00-05:00,114.11,114.11,114.11,114.11,123,0,0
2019-12-20 09:37:00-05:00,114.15,114.15,114.13,114.13,653,0,0
2019-12-20 09:39:00-05:00,114.13,114.13,114.05,114.05,1367,0,0
2019-12-20 09:40:00-05:00,113.97,113.97,113.89,113.89,933,0,0
2019-12-20 09:41:00-05:00,113.89,114.07,113.84,114.07,2733,0,0
2019-12-20 09:43:00-05:00,113.94,113.94,113.94,113.94,301,0,0
2019-12-20 09:45:00-05:00,113.86,113.94,113.81,113.81,1238,0,0
2019-12-20 09:48:00-05:00,113.75,113.75,113.75,113.75,504,0,0
2019-12-20 09:50:00-05:00,113.83,113.83,113.83,113.83,166,0,0
2019-12-20 09:51:00-05:00,113.84,113.84,113.82,113.82,400,0,0
2019-12-20 09:52:00-05:00,113.78,113.78,113.78,113.78,473,0,0
2019-12-20 09:54:00-05:00,113.9,113.9,113.9,113.9,100,0,0
2019-12-20 09:57:00-05:00,113.93,113.93,113.93,113.93,127,0,0
2019-12-20 09:58:00-05:00,114.02,114.2,113.94,113.94,3751,0,0
2019-12-20 10:02:00-05:00,113.9,113.9,113.9,113.9,200,0,0
2019-12-20 10:03:00-05:00,113.9,114.14,113.9,114.04,1288,0,0
2019-12-20 10:04:00-05:00,113.93,113.93,113.93,113.93,123,0,0
2019-12-20 10:05:00-05:00,114.13,114.13,113.92,113.92,533,0,0
2019-12-20 10:07:00-05:00,113.92,113.92,113.92,113.92,884,0,0
2019-12-20 10:09:00-05:00,113.85,113.85,113.85,113.85,377,0,0
2019-12-20 10:11:00-05:00,113.84,113.84,113.84,113.84,297,0,0
2019-12-20 10:13:00-05:00,113.86,113.86,113.82,113.84,675,0,0
2019-12-20 10:14:00-05:00,113.79,113.79,113.79,113.79,219,0,0
2019-12-20 10:16:00-05:00,113.87,113.87,113.77,113.77,679,0,0
2019-12-20 10:17:00-05:00,113.85,113.85,113.85,113.85,796,0,0
2019-12-20 10:25:00-05:00,114.14,114.14,114.14,114.14,234,0,0
2019-12-20 10:27:00-05:00,114.35,114.35,114.35,114.35,101,0,0
2019-12-20 10:28:00-05:00,114.19,114.31,114.18,114.31,1076,0,0
2019-12-20 10:30:00-05:00,114.27,114.27,114.27,114.27,113,0,0
2019-12-20 10:32:00-05:00,114.27,114.38,114.27,114.38,493,0,0
2019-12-20 10:33:00-05:00,114.41,114.41,114.41,114.41,294,0,0
2019-12-20 10:40:00-05:00,114.28,114.28,114.28,114.28,322,0,0
2019-12-20 10:41:00-05:00,114.32,114.32,114.32,114.32,505,0,0
2019-12-20 10:48:00-05:00,114.3,114.53,114.3,114.53,2022,0,0
2019-12-20 10:49:00-05:00,114.48,114.53,114.48,114.53,667,0,0
2019-12-20 10:53:00-05:00,114.72,114.77,114.72,114.72,515,0,0
2019-12-20 10:54:00-05:00,114.98,114.98,114.97,114.97,1541,0,0
2019-12-20 10:56:00-05:00,114.99,115.02,114.96,115.02,1200,0,0
2019-12-20 10:59:00-05:00,114.96,114.96,114.92,114.92,381,0,0
2019-12-20 11:01:00-05:00,114.96,114.96,114.96,114.96,251,0,0
2019-12-20 11:03:00-05:00,114.99,114.99,114.99,114.99,693,0,0
2019-12-20 11:05:00-05:00,115.0,115.0,115.0,115.0,442,0,0
2019-12-20 11:07:00-05:00,114.96,114.96,114.96,114.96,200,0,0
2019-12-20 11:08:00-05:00,114.95,114.95,114.95,114.95,259,0,0
2019-12-20 11:12:00-05:00,114.95,114.95,114.95,114.95,503,0,0
2019-12-20 11:13:00-05:00,114.96,114.96,114.96,114.96,370,0,0
2019-12-20 11:14:00-05:00,114.96,114.96,114.96,114.96,345,0,0
2019-12-20 11:15:00-05:00,114.92,114.99,114.92,114.99,461,0,0
2019-12-20 11:17:00-05:00,115.04,115.04,114.92,115.03,6607,0,0
2019-12-20 11:19:00-05:00,114.95,114.95,114.88,114.88,559,0,0
2019-12-20 11:24:00-05:00,114.69,114.69,114.48,114.68,978,0,0
2019-12-20 11:26:00-05:00,114.72,114.72,114.72,114.72,143,0,0
2019-12-20 11:29:00-05:00,114.88,114.88,114.88,114.88,190,0,0
2019-12-20 11:32:00-05:00,114.83,114.83,114.83,114.83,534,0,0
2019-12-20 11:33:00-05:00,114.7,114.7,114.64,114.68,437,0,0
2019-12-20 11:35:00-05:00,114.64,114.69,114.64,114.69,765,0,0
2019-12-20 11:36:00-05:00,114.63,114.63,114.56,114.58,1144,0,0
2019-12-20 11:37:00-05:00,114.62,114.62,114.62,114.62,362,0,0
2019-12-20 11:39:00-05:00,114.57,114.57,114.57,114.57,141,0,0
2019-12-20 11:40:00-05:00,114.57,114.57,114.57,114.57,226,0,0
2019-12-20 11:41:00-05:00,114.51,114.51,114.51,114.51,288,0,0
2019-12-20 11:42:00-05:00,114.53,114.53,114.53,114.53,765,0,0
2019-12-20 11:46:00-05:00,114.52,114.54,114.49,114.49,417,0,0
2019-12-20 11:47:00-05:00,114.52,114.54,114.52,114.54,591,0,0
2019-12-20 11:48:00-05:00,114.5,114.5,114.5,114.5,209,0,0
2019-12-20 11:49:00-05:00,114.54,114.54,114.54,114.54,405,0,0
2019-12-20 11:50:00-05:00,114.54,114.54,114.54,114.54,335,0,0
2019-12-20 11:51:00-05:00,114.56,114.56,114.56,114.56,138,0,0
2019-12-20 11:53:00-05:00,114.58,114.58,114.57,114.57,441,0,0
2019-12-20 11:56:00-05:00,114.57,114.57,114.57,114.57,176,0,0
2019-12-20 11:57:00-05:00,114.53,114.53,114.52,114.52,405,0,0
2019-12-20 11:58:00-05:00,114.4,114.4,114.4,114.4,588,0,0
2019-12-20 12:02:00-05:00,114.4,114.4,114.35,114.35,708,0,0
2019-12-20 12:03:00-05:00,114.35,114.35,114.35,114.35,269,0,0
2019-12-20 12:05:00-05:00,114.26,114.26,114.26,114.26,394,0,0
2019-12-20 12:11:00-05:00,114.27,114.27,114.27,114.27,266,0,0
2019-12-20 12:12:00-05:00,114.28,114.28,114.28,114.28,223,0,0
2019-12-20 12:14:00-05:00,114.3,114.3,114.3,114.3,349,0,0
2019-12-20 12:18:00-05:00,114.26,114.26,114.21,114.21,713,0,0
2019-12-20 12:23:00-05:00,114.33,114.33,114.33,114.33,678,0,0
2019-12-20 12:31:00-05:00,114.39,114.47,114.39,114.4,936,0,0
2019-12-20 12:32:00-05:00,114.27,114.28,114.25,114.28,574,0,0
2019-12-20 12:33:00-05:00,114.36,114.36,114.36,114.36,432,0,0
2019-12-20 12:40:00-05:00,114.25,114.25,114.25,114.25,532,0,0
2019-12-20 12:52:00-05:00,114.2,114.2,114.17,114.17,651,0,0
2019-12-20 12:53:00-05:00,114.17,114.17,114.17,114.17,937,0,0
2019-12-20 13:01:00-05:00,114.25,114.25,114.25,114.25,475,0,0
2019-12-20 13:07:00-05:00,114.38,114.38,114.38,114.38,526,0,0
2019-12-20 13:09:00-05:00,114.4,114.4,114.4,114.4,626,0,0
2019-12-20 13:13:00-05:00,114.4,114.4,114.39,114.39,532,0,0
2019-12-20 13:17:00-05:00,114.4,114.43,114.37,114.43,1086,0,0
2019-12-20 13:18:00-05:00,114.31,114.31,114.31,114.31,152,0,0
2019-12-20 13:20:00-05:00,114.41,114.41,114.41,114.41,348,0,0
2019-12-20 13:24:00-05:00,114.39,114.39,114.39,114.39,391,0,0
2019-12-20 13:27:00-05:00,114.36,114.4,114.36,114.4,580,0,0
2019-12-20 13:31:00-05:00,114.41,114.42,114.41,114.42,1260,0,0
2019-12-20 13:37:00-05:00,114.29,114.29,114.28,114.28,516,0,0
2019-12-20 13:38:00-05:00,114.3,114.3,114.3,114.3,389,0,0
2019-12-20 13:39:00-05:00,114.35,114.35,114.35,114.35,340,0,0
2019-12-20 13:41:00-05:00,114.42,114.42,114.42,114.42,134,0,0
2019-12-20 13:43:00-05:00,114.5,114.5,114.5,114.5,201,0,0
2019-12-20 13:44:00-05:00,114.52,114.52,114.51,114.51,299,0,0
2019-12-20 13:45:00-05:00,114.54,114.54,114.54,114.54,514,0,0
2019-12-20 13:48:00-05:00,114.5,114.5,114.5,114.5,531,0,0
2019-12-20 13:52:00-05:00,114.52,114.52,114.52,114.52,364,0,0
2019-12-20 13:57:00-05:00,114.52,114.52,114.52,114.52,150,0,0
2019-12-20 13:58:00-05:00,114.53,114.53,114.53,114.53,120,0,0
2019-12-20 13:59:00-05:00,114.55,114.55,114.55,114.55,947,0,0
2019-12-20 14:04:00-05:00,114.51,114.51,114.51,114.51,549,0,0
2019-12-20 14:08:00-05:00,114.52,114.52,114.52,114.52,532,0,0
2019-12-20 14:09:00-05:00,114.5,114.52,114.5,114.52,530,0,0
2019-12-20 14:11:00-05:00,114.55,114.55,114.55,114.55,109,0,0
2019-12-20 14:12:00-05:00,114.57,114.6,114.57,114.6,416,0,0
2019-12-20 14:13:00-05:00,114.6,114.63,114.6,114.62,358,0,0
2019-12-20 14:14:00-05:00,114.69,114.69,114.69,114.69,211,0,0
2019-12-20 14:16:00-05:00,114.7,114.7,114.7,114.7,840,0,0
2019-12-20 14:17:00-05:00,114.65,114.65,114.65,114.65,307,0,0
2019-12-20 14:18:00-05:00,114.62,114.62,114.62,114.62,336,0,0
2019-12-20 14:20:00-05:00,114.57,114.57,114.57,114.57,291,0,0
2019-12-20 14:21:00-05:00,114.52,114.52,114.45,114.45,500,0,0
2019-12-20 14:22:00-05:00,114.54,114.54,114.54,114.54,403,0,0
2019-12-20 14:29:00-05:00,114.63,114.63,114.63,114.63,229,0,0
2019-12-20 14:31:00-05:00,114.68,114.68,114.68,114.68,260,0,0
2019-12-20 14:33:00-05:00,114.66,114.66,114.66,114.66,162,0,0
2019-12-20 14:35:00-05:00,114.7,114.81,114.7,114.81,635,0,0
2019-12-20 14:36:00-05:00,114.88,114.88,114.88,114.88,213,0,0
2019-12-20 14:37:00-05:00,114.8,114.8,114.75,114.75,919,0,0
2019-12-20 14:41:00-05:00,114.74,114.74,114.74,114.74,238,0,0
2019-12-20 14:44:00-05:00,114.76,114.76,114.76,114.76,495,0,0
2019-12-20 14:45:00-05:00,114.74,114.74,114.74,114.74,480,0,0
2019-12-20 14:50:00-05:00,114.74,114.77,114.74,114.77,993,0,0
2019-12-20 14:54:00-05:00,114.78,114.78,114.78,114.78,428,0,0
2019-12-20 14:58:00-05:00,114.73,114.73,114.73,114.73,883,0,0
2019-12-20 15:02:00-05:00,114.8,114.8,114.8,114.8,272,0,0
2019-12-20 15:03:00-05:00,114.81,114.81,114.78,114.78,979,0,0
2019-12-20 15:07:00-05:00,114.75,114.75,114.75,114.75,498,0,0
2019-12-20 15:10:00-05:00,114.76,114.76,114.76,114.76,208,0,0
2019-12-20 15:13:00-05:00,114.79,114.79,114.79,114.79,200,0,0
2019-12-20 15:14:00-05:00,114.8,114.8,114.8,114.8,296,0,0
2019-12-20 15:15:00-05:00,114.81,114.81,114.81,114.81,361,0,0
2019-12-20 15:16:00-05:00,114.86,114.86,114.86,114.86,248,0,0
2019-12-20 15:18:00-05:00,114.86,114.92,114.86,114.92,606,0,0
2019-12-20 15:19:00-05:00,114.93,114.93,114.93,114.93,119,0,0
2019-12-20 15:20:00-05:00,114.92,114.95,114.92,114.95,580,0,0
2019-12-20 15:21:00-05:00,114.93,114.93,114.92,114.92,1307,0,0
2019-12-20 15:23:00-05:00,114.9,114.91,114.88,114.89,1456,0,0
2019-12-20 15:25:00-05:00,114.89,114.92,114.89,114.92,337,0,0
2019-12-20 15:26:00-05:00,114.92,114.93,114.91,114.91,1192,0,0
2019-12-20 15:28:00-05:00,114.92,114.92,114.92,114.92,685,0,0
2019-12-20 15:30:00-05:00,115.05,115.07,115.0,115.0,1049,0,0
2019-12-20 15:31:00-05:00,114.96,114.96,114.96,114.96,235,0,0
2019-12-20 15:32:00-05:00,114.95,114.95,114.95,114.95,328,0,0
2019-12-20 15:33:00-05:00,115.01,115.01,115.01,115.01,281,0,0
2019-12-20 15:34:00-05:00,114.97,114.99,114.97,114.99,418,0,0
2019-12-20 15:35:00-05:00,114.99,114.99,114.97,114.97,1060,0,0
2019-12-20 15:37:00-05:00,114.95,114.95,114.92,114.92,520,0,0
2019-12-20 15:39:00-05:00,114.84,114.85,114.82,114.85,1772,0,0
2019-12-20 15:40:00-05:00,114.87,114.87,114.87,114.87,210,0,0
2019-12-20 15:41:00-05:00,114.87,114.9,114.87,114.9,1186,0,0
2019-12-20 15:42:00-05:00,114.92,114.96,114.92,114.96,851,0,0
2019-12-20 15:43:00-05:00,114.97,114.97,114.96,114.96,748,0,0
2019-12-20 15:44:00-05:00,114.95,114.97,114.95,114.95,322,0,0
2019-12-20 15:45:00-05:00,114.95,114.96,114.94,114.94,791,0,0
2019-12-20 15:47:00-05:00,114.94,114.95,114.94,114.95,375,0,0
2019-12-20 15:48:00-05:00,114.95,114.95,114.95,114.95,447,0,0
2019-12-20 15:49:00-05:00,114.95,114.95,114.95,114.95,812,0,0
2019-12-20 15:50:00-05:00,114.95,114.95,114.84,114.84,2600,0,0
2019-12-20 15:51:00-05:00,114.86,114.86,114.81,114.81,1040,0,0
2019-12-20 15:52:00-05:00,114.84,114.91,114.84,114.87,1095,0,0
2019-12-20 15:53:00-05:00,114.89,114.89,114.84,114.85,1020,0,0
2019-12-20 15:54:00-05:00,114.84,114.88,114.7,114.88,3998,0,0
2019-12-20 15:55:00-05:00,114.88,114.93,114.84,114.91,3179,0,0
2019-12-20 15:56:00-05:00,114.85,114.88,114.8,114.81,3355,0,0
2019-12-20 15:57:00-05:00,114.84,114.91,114.83,114.9,3568,0,0
2019-12-20 15:58:00-05:00,114.9,114.97,114.88,114.93,6328,0,0
2019-12-20 15:59:00-05:00,114.93,115.14,114.93,115.04,22127,0,0
2019-12-23 09:31:00-05:00,114.49,114.49,114.49,114.49,3331,0,0
2019-12-23 09:33:00-05:00,114.99,114.99,114.99,114.99,274,0,0
2019-12-23 09:35:00-05:00,114.94,114.94,114.88,114.88,447,0,0
2019-12-23 09:36:00-05:00,114.7,114.73,114.7,114.73,972,0,0
2019-12-23 09:37:00-05:00,114.57,114.57,114.57,114.57,311,0,0
2019-12-23 09:40:00-05:00,114.61,114.61,114.45,114.45,303,0,0
2019-12-23 09:42:00-05:00,114.74,114.74,114.61,114.74,769,0,0
2019-12-23 09:43:00-05:00,114.75,114.75,114.64,114.75,300,0,0
2019-12-23 09:44:00-05:00,114.75,114.78,114.65,114.78,2289,0,0
2019-12-23 09:48:00-05:00,114.76,114.76,114.76,114.76,317,0,0
2019-12-23 09:51:00-05:00,114.69,114.76,114.69,114.76,239,0,0
2019-12-23 09:52:00-05:00,114.82,114.82,114.82,114.82,110,0,0
2019-12-23 09:53:00-05:00,114.67,114.67,114.44,114.44,1225,0,0
2019-12-23 09:55:00-05:00,114.68,114.68,114.68,114.68,135,0,0
2019-12-23 09:57:00-05:00,114.8,114.8,114.8,114.8,199,0,0
2019-12-23 10:00:00-05:00,114.7,114.71,114.57,114.57,874,0,0
2019-12-23 10:03:00-05:00,114.8,114.8,114.8,114.8,114,0,0
2019-12-23 10:06:00-05:00,114.78,114.78,114.78,114.78,1095,0,0
2019-12-23 10:13:00-05:00,114.67,114.67,114.67,114.67,600,0,0
2019-12-23 10:19:00-05:00,114.46,114.46,114.23,114.44,1389,0,0
2019-12-23 10:21:00-05:00,114.36,114.38,114.36,114.38,1018,0,0
2019-12-23 10:22:00-05:00,114.45,114.45,114.45,114.45,487,0,0
2019-12-23 10:24:00-05:00,114.41,114.47,114.41,114.42,476,0,0
2019-12-23 10:25:00-05:00,114.41,114.41,114.41,114.41,107,0,0
2019-12-23 10:27:00-05:00,114.49,114.49,114.49,114.49,113,0,0
2019-12-23 10:28:00-05:00,114.4,114.4,114.4,114.4,204,0,0
2019-12-23 10:30:00-05:00,114.39,114.39,114.39,114.39,129,0,0
2019-12-23 10:31:00-05:00,114.39,114.39,114.39,114.39,624,0,0
2019-12-23 10:32:00-05:00,114.36,114.36,114.28,114.28,828,0,0
2019-12-23 10:33:00-05:00,114.23,114.26,114.23,114.26,868,0,0
2019-12-23 10:34:00-05:00,114.28,114.28,114.27,114.27,1110,0,0
2019-12-23 10:38:00-05:00,114.36,114.36,114.36,114.36,238,0,0
2019-12-23 10:39:00-05:00,114.29,114.33,114.29,114.33,3331,0,0
2019-12-23 10:41:00-05:00,114.27,114.27,114.27,114.27,101,0,0
2019-12-23 10:42:00-05:00,114.33,114.35,114.33,114.35,643,0,0
2019-12-23 10:45:00-05:00,114.46,114.5,114.45,114.45,612,0,0
2019-12-23 10:47:00-05:00,114.49,114.53,114.49,114.53,329,0,0
2019-12-23 10:50:00-05:00,114.53,114.53,114.53,114.53,426,0,0
2019-12-23 10:52:00-05:00,114.48,114.48,114.48,114.48,559,0,0
2019-12-23 10:56:00-05:00,114.6,114.6,114.6,114.6,163,0,0
2019-12-23 10:59:00-05:00,114.62,114.62,114.62,114.62,207,0,0
2019-12-23 11:01:00-05:00,114.77,114.77,114.55,114.68,719,0,0
2019-12-23 11:06:00-05:00,114.69,114.72,114.69,114.72,311,0,0
2019-12-23 11:07:00-05:00,114.71,114.71,114.71,114.71,131,0,0
2019-12-23 11:08:00-05:00,114.72,114.72,114.72,114.72,299,0,0
2019-12-23 11:20:00-05:00,114.76,114.76,114.76,114.76,922,0,0
2019-12-23 11:22:00-05:00,114.8,114.8,114.78,114.79,625,0,0
2019-12-23 11:23:00-05:00,114.8,114.86,114.8,114.86,635,0,0
2019-12-23 11:26:00-05:00,114.86,114.86,114.86,114.86,252,0,0
2019-12-23 11:29:00-05:00,114.82,114.82,114.82,114.82,231,0,0
2019-12-23 11:34:00-05:00,114.9,114.95,114.89,114.89,764,0,0
2019-12-23 11:38:00-05:00,114.88,114.88,114.88,114.88,563,0,0
2019-12-23 11:48:00-05:00,114.77,114.77,114.77,114.77,398,0,0
2019-12-23 11:51:00-05:00,114.73,114.73,114.73,114.73,145,0,0
2019-12-23 11:53:00-05:00,114.79,114.79,114.79,114.79,450,0,0
2019-12-23 11:56:00-05:00,114.8,114.8,114.8,114.8,111,0,0
2019-12-23 11:57:00-05:00,114.84,114.84,114.84,114.84,142,0,0
2019-12-23 11:58:00-05:00,114.8,114.9,114.8,114.9,1746,0,0
2019-12-23 12:02:00-05:00,114.91,114.91,114.91,114.91,461,0,0
2019-12-23 12:03:00-05:00,114.91,114.91,114.91,114.91,387,0,0
2019-12-23 12:10:00-05:00,114.9,114.9,114.9,114.9,295,0,0
2019-12-23 12:13:00-05:00,114.92,114.92,114.92,114.92,235,0,0
2019-12-23 12:15:00-05:00,114.97,115.02,114.97,115.02,627,0,0
2019-12-23 12:17:00-05:00,114.97,114.97,114.97,114.97,390,0,0
2019-12-23 12:19:00-05:00,115.0,115.0,115.0,115.0,137,0,0
2019-12-23 12:21:00-05:00,114.97,114.97,114.97,114.97,237,0,0
2019-12-23 12:23:00-05:00,114.91,114.94,114.91,114.94,398,0,0
2019-12-23 12:25:00-05:00,114.96,115.12,114.96,115.12,1459,0,0
2019-12-23 12:26:00-05:00,115.04,115.04,115.04,115.04,122,0,0
2019-12-23 12:29:00-05:00,114.98,115.02,114.98,115.02,521,0,0
2019-12-23 12:30:00-05:00,115.01,115.01,115.01,115.01,1177,0,0
2019-12-23 12:41:00-05:00,115.04,115.04,115.04,115.04,144,0,0
2019-12-23 12:43:00-05:00,115.03,115.03,115.03,115.03,241,0,0
2019-12-23 12:48:00-05:00,114.97,114.97,114.96,114.96,567,0,0
2019-12-23 12:50:00-05:00,114.97,114.97,114.97,114.97,144,0,0
2019-12-23 12:52:00-05:00,115.0,115.0,115.0,115.0,278,0,0
2019-12-23 12:55:00-05:00,115.03,115.04,115.03,115.04,576,0,0
2019-12-23 12:59:00-05:00,115.04,115.04,115.04,115.04,157,0,0
2019-12-23 13:01:00-05:00,115.07,115.09,115.07,115.09,528,0,0
2019-12-23 13:04:00-05:00,115.08,115.08,115.08,115.08,211,0,0
2019-12-23 13:05:00-05:00,115.06,115.06,115.06,115.06,111,0,0
2019-12-23 13:06:00-05:00,115.08,115.09,115.08,115.09,442,0,0
2019-12-23 13:07:00-05:00,115.13,115.13,115.13,115.13,275,0,0
2019-12-23 13:11:00-05:00,115.05,115.05,115.05,115.05,220,0,0
2019-12-23 13:14:00-05:00,115.12,115.12,115.12,115.12,572,0,0
2019-12-23 13:15:00-05:00,115.11,115.11,115.1,115.1,696,0,0
2019-12-23 13:19:00-05:00,115.12,115.12,115.12,115.12,587,0,0
2019-12-23 13:25:00-05:00,115.1,115.1,115.1,115.1,730,0,0
2019-12-23 13:32:00-05:00,115.08,115.08,115.08,115.08,196,0,0
2019-12-23 13:33:00-05:00,115.06,115.12,115.06,115.12,636,0,0
2019-12-23 13:36:00-05:00,115.11,115.11,115.11,115.11,268,0,0
2019-12-23 13:39:00-05:00,115.07,115.1,115.07,115.1,755,0,0
2019-12-23 13:45:00-05:00,115.16,115.16,115.14,115.16,637,0,0
2019-12-23 13:46:00-05:00,115.17,115.17,115.17,115.17,104,0,0
2019-12-23 13:47:00-05:00,115.16,115.16,115.1,115.14,751,0,0
2019-12-23 13:48:00-05:00,115.16,115.16,115.16,115.16,330,0,0
2019-12-23 13:51:00-05:00,115.12,115.12,115.12,115.12,255,0,0
2019-12-23 13:56:00-05:00,115.16,115.18,115.16,115.18,355,0,0
2019-12-23 13:58:00-05:00,115.14,115.14,115.14,115.14,130,0,0
2019-12-23 13:59:00-05:00,115.2,115.2,115.2,115.2,458,0,0
2019-12-23 14:02:00-05:00,115.25,115.25,115.25,115.25,262,0,0
2019-12-23 14:04:00-05:00,115.27,115.27,115.27,115.27,114,0,0
2019-12-23 14:05:00-05:00,115.27,115.27,115.27,115.27,119,0,0
2019-12-23 14:06:00-05:00,115.28,115.28,115.28,115.28,368,0,0
2019-12-23 14:09:00-05:00,115.26,115.27,115.26,115.27,587,0,0
2019-12-23 14:10:00-05:00,115.27,115.27,115.27,115.27,281,0,0
2019-12-23 14:13:00-05:00,115.25,115.34,115.25,115.34,803,0,0
2019-12-23 14:14:00-05:00,115.32,115.32,115.32,115.32,191,0,0
2019-12-23 14:15:00-05:00,115.34,115.34,115.34,115.34,364,0,0
2019-12-23 14:19:00-05:00,115.31,115.31,115.31,115.31,131,0,0
2019-12-23 14:21:00-05:00,115.28,115.28,115.28,115.28,105,0,0
2019-12-23 14:22:00-05:00,115.26,115.26,115.26,115.26,546,0,0
2019-12-23 14:24:00-05:00,115.28,115.28,115.28,115.28,214,0,0
2019-12-23 14:27:00-05:00,115.28,115.29,115.28,115.29,614,0,0
2019-12-23 14:31:00-05:00,115.32,115.34,115.32,115.34,501,0,0
2019-12-23 14:33:00-05:00,115.33,115.33,115.3,115.3,899,0,0
2019-12-23 14:36:00-05:00,115.26,115.26,115.26,115.26,427,0,0
2019-12-23 14:37:00-05:00,115.23,115.23,115.23,115.23,214,0,0
2019-12-23 14:41:00-05:00,115.25,115.25,115.25,115.25,372,0,0
2019-12-23 14:43:00-05:00,115.2,115.2,115.2,115.2,261,0,0
2019-12-23 14:44:00-05:00,115.23,115.23,115.23,115.23,103,0,0
2019-12-23 14:45:00-05:00,115.18,115.18,115.18,115.18,118,0,0
2019-12-23 14:46:00-05:00,115.18,115.18,115.18,115.18,321,0,0
2019-12-23 14:47:00-05:00,115.15,115.15,115.15,115.15,242,0,0
2019-12-23 14:50:00-05:00,115.19,115.19,115.19,115.19,337,0,0
2019-12-23 14:52:00-05:00,115.19,115.19,115.18,115.18,385,0,0
2019-12-23 14:54:00-05:00,115.18,115.18,115.16,115.16,779,0,0
2019-12-23 14:57:00-05:00,115.22,115.22,115.22,115.22,240,0,0
2019-12-23 15:00:00-05:00,115.25,115.25,115.21,115.21,730,0,0
2019-12-23 15:01:00-05:00,115.21,115.22,115.18,115.22,2331,0,0
2019-12-23 15:02:00-05:00,115.18,115.18,115.18,115.18,389,0,0
2019-12-23 15:04:00-05:00,115.13,115.24,115.13,115.24,1462,0,0
2019-12-23 15:12:00-05:00,115.2,115.2,115.2,115.2,103,0,0
2019-12-23 15:13:00-05:00,115.21,115.21,115.16,115.16,357,0,0
2019-12-23 15:15:00-05:00,115.16,115.16,115.16,115.16,492,0,0
2019-12-23 15:17:00-05:00,115.13,115.2,115.13,115.2,579,0,0
2019-12-23 15:19:00-05:00,115.21,115.21,115.21,115.21,224,0,0
2019-12-23 15:20:00-05:00,115.21,115.21,115.21,115.21,242,0,0
2019-12-23 15:21:00-05:00,115.22,115.22,115.19,115.19,894,0,0
2019-12-23 15:22:00-05:00,115.21,115.21,115.21,115.21,100,0,0
2019-12-23 15:23:00-05:00,115.17,115.21,115.17,115.21,289,0,0
2019-12-23 15:24:00-05:00,115.21,115.21,115.19,115.19,874,0,0
2019-12-23 15:27:00-05:00,115.13,115.13,115.13,115.13,401,0,0
2019-12-23 15:30:00-05:00,115.09,115.12,115.06,115.12,1662,0,0
2019-12-23 15:31:00-05:00,115.1,115.1,115.1,115.1,621,0,0
2019-12-23 15:34:00-05:00,115.09,115.1,115.07,115.07,658,0,0
2019-12-23 15:35:00-05:00,115.07,115.07,115.07,115.07,282,0,0
2019-12-23 15:37:00-05:00,115.11,115.12,115.11,115.12,451,0,0
2019-12-23 15:39:00-05:00,115.14,115.14,115.11,115.11,293,0,0
2019-12-23 15:40:00-05:00,115.07,115.07,115.07,115.07,268,0,0
2019-12-23 15:42:00-05:00,115.07,115.07,115.07,115.07,670,0,0
2019-12-23 15:43:00-05:00,115.11,115.12,115.11,115.12,324,0,0
2019-12-23 15:45:00-05:00,115.1,115.14,115.1,115.14,542,0,0
2019-12-23 15:46:00-05:00,115.12,115.14,115.12,115.14,990,0,0
2019-12-23 15:47:00-05:00,115.13,115.14,115.13,115.14,850,0,0
2019-12-23 15:48:00-05:00,115.15,115.15,115.15,115.15,566,0,0
2019-12-23 15:49:00-05:00,115.12,115.13,115.11,115.11,1038,0,0
2019-12-23 15:50:00-05:00,115.12,115.13,115.1,115.1,555,0,0
2019-12-23 15:51:00-05:00,115.12,115.14,115.12,115.14,627,0,0
2019-12-23 15:52:00-05:00,115.12,115.14,115.1,115.1,1093,0,0
2019-12-23 15:53:00-05:00,115.1,115.1,115.07,115.09,2045,0,0
2019-12-23 15:54:00-05:00,115.1,115.17,115.09,115.17,1713,0,0
2019-12-23 15:55:00-05:00,115.18,115.18,115.16,115.16,1221,0,0
2019-12-23 15:56:00-05:00,115.17,115.2,115.17,115.18,1311,0,0
2019-12-23 15:57:00-05:00,115.21,115.21,115.17,115.2,4295,0,0
2019-12-23 15:58:00-05:00,115.17,115.23,115.17,115.2,5469,0,0
2019-12-23 15:59:00-05:00,115.22,115.37,115.17,115.37,12541,0,0
2019-12-24 09:30:00-05:00,115.31,115.31,115.31,115.31,448,0,0
2019-12-24 09:37:00-05:00,115.3,115.44,115.3,115.44,1616,0,0
2019-12-24 09:40:00-05:00,115.26,115.26,115.26,115.26,845,0,0
2019-12-24 09:46:00-05:00,115.27,115.27,115.25,115.25,642,0,0
2019-12-24 09:49:00-05:00,115.27,115.37,115.27,115.37,2436,0,0
2019-12-24 09:50:00-05:00,115.33,115.33,115.33,115.33,538,0,0
2019-12-24 09:57:00-05:00,115.38,115.45,115.38,115.45,664,0,0
2019-12-24 09:59:00-05:00,115.39,115.39,115.25,115.25,490,0,0
2019-12-24 10:00:00-05:00,115.33,115.35,115.33,115.35,300,0,0
2019-12-24 10:01:00-05:00,115.35,115.35,115.35,115.35,100,0,0
2019-12-24 10:02:00-05:00,115.37,115.37,115.37,115.37,325,0,0
2019-12-24 10:07:00-05:00,115.41,115.64,115.41,115.64,776,0,0
2019-12-24 10:14:00-05:00,115.57,115.57,115.57,115.57,100,0,0
2019-12-24 10:15:00-05:00,115.35,115.35,115.35,115.35,108,0,0
2019-12-24 10:16:00-05:00,115.36,115.36,115.36,115.36,103,0,0
2019-12-24 10:23:00-05:00,115.41,115.41,115.41,115.41,193,0,0
2019-12-24 10:26:00-05:00,115.5,115.5,115.5,115.5,280,0,0
2019-12-24 10:27:00-05:00,115.41,115.44,115.41,115.44,811,0,0
2019-12-24 10:30:00-05:00,115.39,115.39,115.39,115.39,121,0,0
2019-12-24 10:31:00-05:00,115.44,115.44,115.44,115.44,967,0,0
2019-12-24 10:32:00-05:00,115.5,115.5,115.5,115.5,376,0,0
2019-12-24 10:36:00-05:00,115.58,115.58,115.58,115.58,101,0,0
2019-12-24 10:37:00-05:00,115.62,115.62,115.62,115.62,100,0,0
2019-12-24 10:38:00-05:00,115.52,115.55,115.44,115.53,502,0,0
2019-12-24 10:39:00-05:00,115.51,115.57,115.51,115.57,1144,0,0
2019-12-24 10:44:00-05:00,115.48,115.48,115.48,115.48,119,0,0
2019-12-24 10:45:00-05:00,115.48,115.49,115.48,115.48,1076,0,0
2019-12-24 10:48:00-05:00,115.45,115.45,115.45,115.45,300,0,0
2019-12-24 10:49:00-05:00,115.43,115.43,115.43,115.43,482,0,0
2019-12-24 10:52:00-05:00,115.36,115.36,115.35,115.35,1001,0,0
2019-12-24 10:56:00-05:00,115.4,115.4,115.4,115.4,106,0,0
2019-12-24 10:57:00-05:00,115.38,115.4,115.3,115.36,2605,0,0
2019-12-24 10:58:00-05:00,115.4,115.4,115.4,115.4,313,0,0
2019-12-24 11:02:00-05:00,115.49,115.49,115.49,115.49,0,0,0
2019-12-24 11:03:00-05:00,115.58,115.58,115.58,115.58,300,0,0
2019-12-24 11:04:00-05:00,115.54,115.54,115.54,115.54,350,0,0
2019-12-24 11:05:00-05:00,115.42,115.42,115.42,115.42,284,0,0
2019-12-24 11:07:00-05:00,115.48,115.48,115.48,115.48,132,0,0
2019-12-24 11:09:00-05:00,115.45,115.45,115.36,115.38,602,0,0
2019-12-24 11:11:00-05:00,115.39,115.39,115.39,115.39,188,0,0
2019-12-24 11:14:00-05:00,115.34,115.35,115.33,115.35,1126,0,0
2019-12-24 11:15:00-05:00,115.36,115.36,115.36,115.36,447,0,0
2019-12-24 11:16:00-05:00,115.4,115.4,115.4,115.4,283,0,0
2019-12-24 11:18:00-05:00,115.36,115.36,115.36,115.36,318,0,0
2019-12-24 11:20:00-05:00,115.34,115.34,115.34,115.34,203,0,0
2019-12-24 11:21:00-05:00,115.33,115.34,115.33,115.34,422,0,0
2019-12-24 11:23:00-05:00,115.28,115.3,115.13,115.26,4137,0,0
2019-12-24 11:24:00-05:00,115.27,115.27,115.27,115.27,242,0,0
2019-12-24 11:27:00-05:00,115.27,115.28,115.27,115.27,403,0,0
2019-12-24 11:29:00-05:00,115.22,115.22,115.22,115.22,108,0,0
2019-12-24 11:31:00-05:00,115.31,115.31,115.31,115.31,220,0,0
2019-12-24 11:33:00-05:00,115.19,115.19,115.19,115.19,653,0,0
2019-12-24 11:39:00-05:00,115.08,115.08,115.08,115.08,988,0,0
2019-12-24 11:47:00-05:00,115.07,115.12,115.07,115.12,599,0,0
2019-12-24 11:52:00-05:00,114.99,114.99,114.98,114.98,583,0,0
2019-12-24 11:56:00-05:00,114.95,114.95,114.95,114.95,102,0,0
2019-12-24 11:57:00-05:00,114.98,114.98,114.98,114.98,231,0,0
2019-12-24 12:01:00-05:00,115.04,115.04,115.04,115.04,347,0,0
2019-12-24 12:06:00-05:00,115.03,115.03,115.03,115.03,111,0,0
2019-12-24 12:07:00-05:00,115.03,115.05,115.03,115.05,1584,0,0
2019-12-24 12:13:00-05:00,115.07,115.07,115.07,115.07,565,0,0
2019-12-24 12:17:00-05:00,114.95,114.95,114.95,114.95,327,0,0
2019-12-24 12:20:00-05:00,114.9,115.04,114.9,115.04,1282,0,0
2019-12-24 12:22:00-05:00,115.03,115.03,115.03,115.03,115,0,0
2019-12-24 12:23:00-05:00,115.08,115.08,115.08,115.08,296,0,0
2019-12-24 12:28:00-05:00,115.07,115.1,115.07,115.1,817,0,0
2019-12-24 12:31:00-05:00,115.06,115.06,115.06,115.06,209,0,0
2019-12-24 12:32:00-05:00,115.05,115.05,115.0,115.0,1309,0,0
2019-12-24 12:42:00-05:00,114.85,114.85,114.85,114.85,404,0,0
2019-12-24 12:43:00-05:00,114.86,114.88,114.86,114.86,832,0,0
2019-12-24 12:46:00-05:00,114.87,114.87,114.83,114.83,352,0,0
2019-12-24 12:47:00-05:00,114.85,114.85,114.82,114.82,290,0,0
2019-12-24 12:48:00-05:00,114.83,114.84,114.83,114.84,778,0,0
2019-12-24 12:49:00-05:00,114.85,114.85,114.85,114.85,209,0,0
2019-12-24 12:50:00-05:00,114.86,114.88,114.86,114.88,1034,0,0
2019-12-24 12:53:00-05:00,114.86,114.86,114.85,114.85,837,0,0
2019-12-24 12:54:00-05:00,114.84,114.84,114.84,114.84,120,0,0
2019-12-24 12:55:00-05:00,114.84,114.84,114.84,114.84,205,0,0
2019-12-24 12:57:00-05:00,114.88,114.88,114.88,114.88,814,0,0
2019-12-24 12:58:00-05:00,114.85,114.93,114.85,114.93,514,0,0
2019-12-24 12:59:00-05:00,114.81,114.85,114.68,114.81,4315,0,0
2019-12-26 09:30:00-05:00,114.74,114.74,114.74,114.74,0,0,0
2019-12-26 09:34:00-05:00,114.04,114.04,114.04,114.04,895,0,0
2019-12-26 09:46:00-05:00,113.96,113.96,113.96,113.96,109,0,0
2019-12-26 09:47:00-05:00,113.91,113.91,113.91,113.91,108,0,0
2019-12-26 09:50:00-05:00,113.8,114.23,113.8,114.22,1941,0,0
2019-12-26 09:51:00-05:00,114.22,114.22,114.21,114.22,753,0,0
2019-12-26 09:52:00-05:00,114.35,114.35,114.35,114.35,100,0,0
2019-12-26 09:53:00-05:00,114.38,114.39,114.38,114.39,208,0,0
2019-12-26 09:54:00-05:00,114.37,114.37,114.37,114.37,291,0,0
2019-12-26 10:01:00-05:00,114.15,114.39,114.15,114.36,918,0,0
2019-12-26 10:03:00-05:00,114.27,114.27,114.27,114.27,267,0,0
2019-12-26 10:15:00-05:00,114.37,114.37,114.37,114.37,176,0,0
2019-12-26 10:24:00-05:00,114.59,114.59,114.59,114.59,260,0,0
2019-12-26 10:42:00-05:00,114.44,114.5,114.44,114.5,757,0,0
2019-12-26 10:44:00-05:00,114.43,114.43,114.43,114.43,577,0,0
2019-12-26 10:45:00-05:00,114.29,114.43,114.29,114.43,474,0,0
2019-12-26 10:55:00-05:00,114.34,114.34,114.34,114.34,579,0,0
2019-12-26 10:56:00-05:00,114.15,114.15,114.15,114.15,100,0,0
2019-12-26 10:58:00-05:00,114.25,114.25,114.25,114.25,251,0,0
2019-12-26 10:59:00-05:00,114.25,114.32,114.25,114.31,1477,0,0
2019-12-26 11:08:00-05:00,114.24,114.29,114.24,114.29,694,0,0
2019-12-26 11:10:00-05:00,114.31,114.34,114.31,114.34,554,0,0
2019-12-26 11:13:00-05:00,114.34,114.39,114.34,114.36,1193,0,0
2019-12-26 11:16:00-05:00,114.4,114.4,114.4,114.4,264,0,0
2019-12-26 11:17:00-05:00,114.51,114.51,114.51,114.51,101,0,0
2019-12-26 11:18:00-05:00,114.64,114.64,114.64,114.64,111,0,0
2019-12-26 11:23:00-05:00,114.48,114.61,114.48,114.61,375,0,0
2019-12-26 11:26:00-05:00,114.49,114.49,114.48,114.48,846,0,0
2019-12-26 11:32:00-05:00,114.41,114.47,114.4,114.46,860,0,0
2019-12-26 11:33:00-05:00,114.47,114.47,114.47,114.47,1090,0,0
2019-12-26 11:35:00-05:00,114.5,114.5,114.5,114.5,231,0,0
2019-12-26 11:36:00-05:00,114.52,114.52,114.52,114.52,172,0,0
2019-12-26 11:38:00-05:00,114.46,114.46,114.46,114.46,564,0,0
2019-12-26 11:44:00-05:00,114.34,114.34,114.28,114.28,382,0,0
2019-12-26 11:46:00-05:00,114.19,114.19,114.19,114.19,156,0,0
2019-12-26 11:51:00-05:00,114.2,114.21,114.2,114.21,1235,0,0
2019-12-26 11:52:00-05:00,114.19,114.19,114.19,114.19,459,0,0
2019-12-26 11:57:00-05:00,114.08,114.16,114.08,114.16,1570,0,0
2019-12-26 12:05:00-05:00,114.24,114.24,114.24,114.24,159,0,0
2019-12-26 12:06:00-05:00,114.27,114.39,114.27,114.39,665,0,0
2019-12-26 12:07:00-05:00,114.34,114.34,114.31,114.31,818,0,0
2019-12-26 12:11:00-05:00,114.3,114.3,114.3,114.3,129,0,0
2019-12-26 12:12:00-05:00,114.3,114.3,114.3,114.3,172,0,0
2019-12-26 12:17:00-05:00,114.29,114.29,114.29,114.29,387,0,0
2019-12-26 12:18:00-05:00,114.34,114.39,114.34,114.39,528,0,0
2019-12-26 12:21:00-05:00,114.29,114.29,114.29,114.29,262,0,0
2019-12-26 12:22:00-05:00,114.29,114.29,114.25,114.25,383,0,0
2019-12-26 12:25:00-05:00,114.18,114.26,114.18,114.26,659,0,0
2019-12-26 12:27:00-05:00,114.28,114.32,114.28,114.32,370,0,0
2019-12-26 12:28:00-05:00,114.38,114.38,114.38,114.38,122,0,0
2019-12-26 12:30:00-05:00,114.39,114.39,114.39,114.39,401,0,0
2019-12-26 12:32:00-05:00,114.39,114.5,114.39,114.5,566,0,0
2019-12-26 12:33:00-05:00,114.42,114.42,114.42,114.42,292,0,0
2019-12-26 12:39:00-05:00,114.41,114.41,114.41,114.41,490,0,0
2019-12-26 12:45:00-05:00,114.46,114.46,114.46,114.46,891,0,0
2019-12-26 12:46:00-05:00,114.5,114.5,114.5,114.5,109,0,0
2019-12-26 12:47:00-05:00,114.48,114.48,114.4,114.4,253,0,0
2019-12-26 12:50:00-05:00,114.43,114.43,114.43,114.43,369,0,0
2019-12-26 12:53:00-05:00,114.47,114.47,114.47,114.47,609,0,0
2019-12-26 12:54:00-05:00,114.51,114.51,114.51,114.51,273,0,0
2019-12-26 12:56:00-05:00,114.49,114.49,114.49,114.49,133,0,0
2019-12-26 12:57:00-05:00,114.49,114.49,114.49,114.49,293,0,0
2019-12-26 13:04:00-05:00,114.52,114.52,114.52,114.52,361,0,0
2019-12-26 13:08:00-05:00,114.58,114.58,114.58,114.58,135,0,0
2019-12-26 13:10:00-05:00,114.61,114.61,114.61,114.61,974,0,0
2019-12-26 13:11:00-05:00,114.59,114.59,114.55,114.55,592,0,0
2019-12-26 13:12:00-05:00,114.51,114.51,114.51,114.51,128,0,0
2019-12-26 13:13:00-05:00,114.55,114.55,114.55,114.55,808,0,0
2019-12-26 13:19:00-05:00,114.58,114.58,114.58,114.58,389,0,0
2019-12-26 13:20:00-05:00,114.6,114.61,114.6,114.61,726,0,0
2019-12-26 13:28:00-05:00,114.6,114.6,114.6,114.6,431,0,0
2019-12-26 13:37:00-05:00,114.59,114.59,114.59,114.59,342,0,0
2019-12-26 13:38:00-05:00,114.58,114.59,114.58,114.59,572,0,0
2019-12-26 13:39:00-05:00,114.53,114.54,114.49,114.49,474,0,0
2019-12-26 13:42:00-05:00,114.41,114.41,114.41,114.41,175,0,0
2019-12-26 13:44:00-05:00,114.51,114.51,114.51,114.51,463,0,0
2019-12-26 13:49:00-05:00,114.42,114.42,114.33,114.36,1297,0,0
2019-12-26 13:51:00-05:00,114.29,114.29,114.29,114.29,110,0,0
2019-12-26 13:52:00-05:00,114.34,114.34,114.34,114.34,569,0,0
2019-12-26 13:54:00-05:00,114.38,114.4,114.38,114.4,1499,0,0
2019-12-26 13:56:00-05:00,114.41,114.42,114.41,114.42,1127,0,0
2019-12-26 14:04:00-05:00,114.56,114.57,114.56,114.57,614,0,0
2019-12-26 14:08:00-05:00,114.57,114.57,114.57,114.57,220,0,0
2019-12-26 14:11:00-05:00,114.58,114.58,114.58,114.58,516,0,0
2019-12-26 14:19:00-05:00,114.35,114.35,114.35,114.35,169,0,0
2019-12-26 14:20:00-05:00,114.4,114.44,114.4,114.44,1246,0,0
2019-12-26 14:22:00-05:00,114.49,114.49,114.49,114.49,100,0,0
2019-12-26 14:25:00-05:00,114.44,114.44,114.44,114.44,444,0,0
2019-12-26 14:27:00-05:00,114.42,114.42,114.42,114.42,103,0,0
2019-12-26 14:29:00-05:00,114.48,114.48,114.48,114.48,243,0,0
2019-12-26 14:30:00-05:00,114.5,114.54,114.5,114.54,1181,0,0
2019-12-26 14:32:00-05:00,114.59,114.59,114.59,114.59,386,0,0
2019-12-26 14:36:00-05:00,114.6,114.6,114.6,114.6,933,0,0
2019-12-26 14:38:00-05:00,114.62,114.62,114.62,114.62,153,0,0
2019-12-26 14:40:00-05:00,114.58,114.58,114.51,114.51,1225,0,0
2019-12-26 14:44:00-05:00,114.46,114.5,114.46,114.5,1164,0,0
2019-12-26 14:51:00-05:00,114.48,114.52,114.48,114.52,732,0,0
2019-12-26 14:52:00-05:00,114.54,114.56,114.54,114.56,791,0,0
2019-12-26 14:59:00-05:00,114.63,114.64,114.62,114.64,399,0,0
2019-12-26 15:01:00-05:00,114.6,114.6,114.6,114.6,426,0,0
2019-12-26 15:07:00-05:00,114.62,114.62,114.62,114.62,672,0,0
2019-12-26 15:08:00-05:00,114.61,114.61,114.61,114.61,386,0,0
2019-12-26 15:09:00-05:00,114.59,114.6,114.59,114.6,801,0,0
2019-12-26 15:12:00-05:00,114.59,114.6,114.59,114.6,604,0,0
2019-12-26 15:13:00-05:00,114.58,114.58,114.58,114.58,215,0,0
2019-12-26 15:15:00-05:00,114.6,114.64,114.6,114.64,1244,0,0
2019-12-26 15:16:00-05:00,114.63,114.63,114.63,114.63,233,0,0
2019-12-26 15:17:00-05:00,114.63,114.63,114.63,114.63,332,0,0
2019-12-26 15:19:00-05:00,114.65,114.65,114.65,114.65,111,0,0
2019-12-26 15:20:00-05:00,114.63,114.63,114.63,114.63,506,0,0
2019-12-26 15:21:00-05:00,114.65,114.67,114.65,114.67,682,0,0
2019-12-26 15:24:00-05:00,114.72,114.72,114.72,114.72,704,0,0
2019-12-26 15:28:00-05:00,114.64,114.64,114.64,114.64,117,0,0
2019-12-26 15:31:00-05:00,114.66,114.71,114.66,114.71,1627,0,0
2019-12-26 15:33:00-05:00,114.69,114.69,114.68,114.68,305,0,0
2019-12-26 15:34:00-05:00,114.62,114.62,114.62,114.62,257,0,0
2019-12-26 15:37:00-05:00,114.67,114.67,114.64,114.64,751,0,0
2019-12-26 15:39:00-05:00,114.65,114.68,114.65,114.68,949,0,0
2019-12-26 15:41:00-05:00,114.7,114.7,114.7,114.7,204,0,0
2019-12-26 15:42:00-05:00,114.69,114.69,114.69,114.69,114,0,0
2019-12-26 15:43:00-05:00,114.69,114.7,114.67,114.7,924,0,0
2019-12-26 15:44:00-05:00,114.7,114.74,114.7,114.74,1104,0,0
2019-12-26 15:45:00-05:00,114.72,114.72,114.71,114.72,1013,0,0
2019-12-26 15:46:00-05:00,114.73,114.82,114.73,114.82,938,0,0
2019-12-26 15:47:00-05:00,114.77,114.77,114.77,114.77,214,0,0
2019-12-26 15:50:00-05:00,114.71,114.75,114.7,114.75,2236,0,0
2019-12-26 15:51:00-05:00,114.75,114.76,114.75,114.76,659,0,0
2019-12-26 15:52:00-05:00,114.77,114.77,114.77,114.77,326,0,0
2019-12-26 15:53:00-05:00,114.72,114.82,114.72,114.82,2058,0,0
2019-12-26 15:55:00-05:00,114.86,114.86,114.83,114.83,1519,0,0
2019-12-26 15:56:00-05:00,114.82,114.82,114.77,114.78,3662,0,0
2019-12-26 15:57:00-05:00,114.74,114.8,114.74,114.8,1289,0,0
2019-12-26 15:58:00-05:00,114.83,114.83,114.79,114.8,1765,0,0
2019-12-26 15:59:00-05:00,114.81,114.84,114.78,114.81,4191,0,0
2019-12-27 09:30:00-05:00,115.22,115.22,115.22,115.22,686,0,0
2019-12-27 09:33:00-05:00,114.19,114.19,114.19,114.19,141,0,0
2019-12-27 09:35:00-05:00,115.0,115.0,115.0,115.0,493,0,0
2019-12-27 09:50:00-05:00,114.75,114.75,114.75,114.75,204,0,0
2019-12-27 09:56:00-05:00,114.71,114.71,114.71,114.71,135,0,0
2019-12-27 09:58:00-05:00,114.69,114.69,114.15,114.55,1456,0,0
2019-12-27 09:59:00-05:00,114.58,114.58,114.27,114.27,358,0,0
2019-12-27 10:00:00-05:00,114.56,114.56,114.56,114.56,210,0,0
2019-12-27 10:01:00-05:00,114.33,114.39,114.33,114.38,412,0,0
2019-12-27 10:04:00-05:00,114.57,114.57,114.45,114.45,541,0,0
2019-12-27 10:07:00-05:00,114.58,114.7,114.58,114.7,931,0,0
2019-12-27 10:12:00-05:00,114.6,114.6,114.6,114.6,225,0,0
2019-12-27 10:18:00-05:00,114.65,114.65,114.65,114.65,204,0,0
2019-12-27 10:19:00-05:00,114.63,114.63,114.63,114.63,996,0,0
2019-12-27 10:21:00-05:00,114.74,114.74,114.74,114.74,634,0,0
2019-12-27 10:32:00-05:00,114.77,114.77,114.77,114.77,110,0,0
2019-12-27 10:33:00-05:00,114.77,114.77,114.77,114.77,214,0,0
2019-12-27 10:35:00-05:00,114.76,114.76,114.68,114.68,951,0,0
2019-12-27 10:38:00-05:00,114.65,114.66,114.65,114.66,200,0,0
2019-12-27 10:39:00-05:00,114.78,114.78,114.78,114.78,317,0,0
2019-12-27 10:40:00-05:00,114.78,114.78,114.78,114.78,480,0,0
2019-12-27 10:42:00-05:00,114.84,114.84,114.84,114.84,275,0,0
2019-12-27 10:47:00-05:00,114.87,114.87,114.87,114.87,1321,0,0
2019-12-27 11:00:00-05:00,114.91,114.93,114.91,114.93,207,0,0
2019-12-27 11:01:00-05:00,114.99,114.99,114.99,114.99,142,0,0
2019-12-27 11:03:00-05:00,114.88,114.88,114.88,114.88,247,0,0
2019-12-27 11:07:00-05:00,114.91,114.91,114.91,114.91,178,0,0
2019-12-27 11:10:00-05:00,114.98,114.99,114.98,114.99,1016,0,0
2019-12-27 11:11:00-05:00,114.98,114.98,114.98,114.98,132,0,0
2019-12-27 11:13:00-05:00,114.95,114.95,114.94,114.94,803,0,0
2019-12-27 11:20:00-05:00,114.95,114.95,114.95,114.95,252,0,0
2019-12-27 11:26:00-05:00,114.86,114.86,114.86,114.86,326,0,0
2019-12-27 11:29:00-05:00,114.95,114.95,114.95,114.95,343,0,0
2019-12-27 11:36:00-05:00,114.98,114.98,114.98,114.98,112,0,0
2019-12-27 11:37:00-05:00,114.98,114.98,114.98,114.98,167,0,0
2019-12-27 11:38:00-05:00,114.99,115.03,114.99,115.01,328,0,0
2019-12-27 11:40:00-05:00,115.04,115.05,115.04,115.05,684,0,0
2019-12-27 11:42:00-05:00,115.03,115.03,115.03,115.03,565,0,0
2019-12-27 11:46:00-05:00,115.1,115.1,115.1,115.1,213,0,0
2019-12-27 11:49:00-05:00,115.23,115.23,115.23,115.23,143,0,0
2019-12-27 11:51:00-05:00,115.13,115.13,115.08,115.09,800,0,0
2019-12-27 11:54:00-05:00,115.16,115.17,115.16,115.17,680,0,0
2019-12-27 12:00:00-05:00,115.19,115.19,115.19,115.19,369,0,0
2019-12-27 12:02:00-05:00,115.15,115.15,115.1,115.1,574,0,0
2019-12-27 12:04:00-05:00,115.0,115.0,115.0,115.0,252,0,0
2019-12-27 12:12:00-05:00,115.05,115.1,115.05,115.1,420,0,0
2019-12-27 12:15:00-05:00,115.22,115.22,115.22,115.22,202,0,0
2019-12-27 12:17:00-05:00,115.22,115.22,115.14,115.14,529,0,0
2019-12-27 12:21:00-05:00,115.05,115.05,115.05,115.05,648,0,0
2019-12-27 12:23:00-05:00,115.08,115.08,115.08,115.08,220,0,0
2019-12-27 12:28:00-05:00,115.06,115.06,115.06,115.06,115,0,0
2019-12-27 12:30:00-05:00,115.04,115.04,115.04,115.04,210,0,0
2019-12-27 12:33:00-05:00,115.1,115.1,115.1,115.1,403,0,0
2019-12-27 12:34:00-05:00,115.07,115.07,115.07,115.07,172,0,0
2019-12-27 12:40:00-05:00,115.09,115.09,115.09,115.09,226,0,0
2019-12-27 12:41:00-05:00,115.04,115.04,115.04,115.04,149,0,0
2019-12-27 12:43:00-05:00,115.03,115.03,115.03,115.03,628,0,0
2019-12-27 12:50:00-05:00,114.95,114.95,114.95,114.95,180,0,0
2019-12-27 12:51:00-05:00,114.99,114.99,114.99,114.99,460,0,0
2019-12-27 12:52:00-05:00,115.0,115.0,115.0,115.0,170,0,0
2019-12-27 12:56:00-05:00,115.05,115.11,115.05,115.11,374,0,0
2019-12-27 12:58:00-05:00,115.04,115.05,115.04,115.05,443,0,0
2019-12-27 13:05:00-05:00,115.05,115.05,115.05,115.05,393,0,0
2019-12-27 13:07:00-05:00,115.07,115.07,114.99,114.99,831,0,0
2019-12-27 13:08:00-05:00,115.02,115.02,115.02,115.02,100,0,0
2019-12-27 13:09:00-05:00,115.08,115.08,115.08,115.08,362,0,0
2019-12-27 13:21:00-05:00,115.06,115.06,115.06,115.06,249,0,0
2019-12-27 13:22:00-05:00,115.12,115.12,115.12,115.12,137,0,0
2019-12-27 13:23:00-05:00,115.04,115.04,115.04,115.04,235,0,0
2019-12-27 13:24:00-05:00,115.1,115.29,115.1,115.25,4612,0,0
2019-12-27 13:25:00-05:00,115.26,115.26,115.26,115.26,726,0,0
2019-12-27 13:26:00-05:00,115.34,115.34,115.34,115.34,747,0,0
2019-12-27 13:27:00-05:00,115.25,115.25,115.25,115.25,147,0,0
2019-12-27 13:29:00-05:00,115.34,115.34,115.34,115.34,120,0,0
2019-12-27 13:30:00-05:00,115.32,115.32,115.32,115.32,277,0,0
2019-12-27 13:31:00-05:00,115.29,115.29,115.29,115.29,198,0,0
2019-12-27 13:32:00-05:00,115.25,115.26,115.25,115.26,337,0,0
2019-12-27 13:34:00-05:00,115.28,115.28,115.28,115.28,198,0,0
2019-12-27 13:35:00-05:00,115.28,115.28,115.28,115.28,274,0,0
2019-12-27 13:36:00-05:00,115.21,115.21,115.21,115.21,679,0,0
2019-12-27 13:50:00-05:00,115.15,115.15,115.12,115.12,370,0,0
2019-12-27 13:51:00-05:00,115.14,115.14,115.14,115.14,146,0,0
2019-12-27 13:57:00-05:00,115.04,115.04,115.04,115.04,135,0,0
2019-12-27 13:58:00-05:00,115.1,115.1,115.1,115.1,692,0,0
2019-12-27 14:00:00-05:00,115.12,115.16,115.12,115.16,474,0,0
2019-12-27 14:02:00-05:00,115.1,115.1,115.1,115.1,368,0,0
2019-12-27 14:05:00-05:00,115.19,115.19,115.19,115.19,504,0,0
2019-12-27 14:07:00-05:00,115.23,115.23,115.23,115.23,344,0,0
2019-12-27 14:11:00-05:00,115.26,115.26,115.26,115.26,417,0,0
2019-12-27 14:13:00-05:00,115.3,115.3,115.29,115.29,543,0,0
2019-12-27 14:14:00-05:00,115.32,115.32,115.32,115.32,1607,0,0
2019-12-27 14:15:00-05:00,115.31,115.32,115.31,115.32,346,0,0
2019-12-27 14:16:00-05:00,115.31,115.31,115.31,115.31,712,0,0
2019-12-27 14:19:00-05:00,115.24,115.24,115.18,115.18,418,0,0
2019-12-27 14:23:00-05:00,115.21,115.21,115.21,115.21,352,0,0
2019-12-27 14:28:00-05:00,115.24,115.24,115.24,115.24,219,0,0
2019-12-27 14:30:00-05:00,115.29,115.29,115.29,115.29,145,0,0
2019-12-27 14:33:00-05:00,115.35,115.35,115.35,115.35,100,0,0
2019-12-27 14:34:00-05:00,115.26,115.26,115.26,115.26,1037,0,0
2019-12-27 14:44:00-05:00,115.1,115.1,115.1,115.1,319,0,0
2019-12-27 14:45:00-05:00,115.14,115.14,115.14,115.14,140,0,0
2019-12-27 14:47:00-05:00,115.09,115.09,115.09,115.09,141,0,0
2019-12-27 14:49:00-05:00,115.04,115.04,115.04,115.04,249,0,0
2019-12-27 14:51:00-05:00,115.07,115.08,115.07,115.08,547,0,0
2019-12-27 14:54:00-05:00,115.13,115.13,115.13,115.13,359,0,0
2019-12-27 15:00:00-05:00,115.19,115.19,115.19,115.19,441,0,0
2019-12-27 15:03:00-05:00,115.14,115.14,115.12,115.12,961,0,0
2019-12-27 15:10:00-05:00,115.06,115.06,115.01,115.01,804,0,0
2019-12-27 15:12:00-05:00,115.08,115.08,115.08,115.08,272,0,0
2019-12-27 15:13:00-05:00,115.13,115.13,115.13,115.13,107,0,0
2019-12-27 15:14:00-05:00,115.15,115.15,115.15,115.15,232,0,0
2019-12-27 15:16:00-05:00,115.17,115.17,115.17,115.17,429,0,0
2019-12-27 15:18:00-05:00,115.15,115.15,115.15,115.15,183,0,0
2019-12-27 15:20:00-05:00,115.19,115.19,115.19,115.19,555,0,0
2019-12-27 15:27:00-05:00,115.1,115.13,115.1,115.13,556,0,0
2019-12-27 15:30:00-05:00,115.13,115.13,115.12,115.12,264,0,0
2019-12-27 15:31:00-05:00,115.11,115.11,115.09,115.09,649,0,0
2019-12-27 15:33:00-05:00,115.08,115.08,115.08,115.08,357,0,0
2019-12-27 15:34:00-05:00,115.05,115.05,115.05,115.05,493,0,0
2019-12-27 15:36:00-05:00,115.03,115.03,115.03,115.03,550,0,0
2019-12-27 15:37:00-05:00,115.05,115.07,115.05,115.05,986,0,0
2019-12-27 15:42:00-05:00,115.0,115.0,115.0,115.0,399,0,0
2019-12-27 15:43:00-05:00,114.97,114.97,114.97,114.97,657,0,0
2019-12-27 15:45:00-05:00,114.94,114.95,114.94,114.95,561,0,0
2019-12-27 15:46:00-05:00,114.96,115.02,114.96,115.02,910,0,0
2019-12-27 15:47:00-05:00,114.99,114.99,114.99,114.99,112,0,0
2019-12-27 15:49:00-05:00,114.98,114.98,114.97,114.97,738,0,0
2019-12-27 15:50:00-05:00,114.96,114.96,114.9,114.9,814,0,0
2019-12-27 15:52:00-05:00,114.95,114.95,114.95,114.95,506,0,0
2019-12-27 15:53:00-05:00,114.95,114.97,114.95,114.97,1339,0,0
2019-12-27 15:54:00-05:00,114.99,115.0,114.99,115.0,1048,0,0
2019-12-27 15:55:00-05:00,115.03,115.06,115.03,115.06,819,0,0
2019-12-27 15:56:00-05:00,115.05,115.05,115.05,115.05,279,0,0
2019-12-27 15:57:00-05:00,115.02,115.04,115.02,115.04,788,0,0
2019-12-27 15:58:00-05:00,115.06,115.07,114.98,115.03,1917,0,0
2019-12-27 15:59:00-05:00,115.05,115.05,114.93,115.03,3403,0,0
2019-12-30 09:30:00-05:00,114.94,114.99,114.75,114.99,1441,0,0
2019-12-30 09:31:00-05:00,114.99,115.0,114.99,115.0,769,0,0
2019-12-30 09:33:00-05:00,114.95,114.95,114.95,114.95,330,0,0
2019-12-30 09:34:00-05:00,115.03,115.04,115.03,115.04,255,0,0
2019-12-30 09:35:00-05:00,115.03,115.03,115.03,115.03,412,0,0
2019-12-30 09:37:00-05:00,114.94,114.94,114.94,114.94,231,0,0
2019-12-30 09:38:00-05:00,114.82,114.82,114.82,114.82,100,0,0
2019-12-30 09:39:00-05:00,115.08,115.08,115.08,115.08,640,0,0
2019-12-30 09:46:00-05:00,114.94,114.94,114.94,114.94,109,0,0
2019-12-30 09:47:00-05:00,114.99,114.99,114.99,114.99,241,0,0
2019-12-30 09:49:00-05:00,114.95,114.95,114.95,114.95,655,0,0
2019-12-30 09:53:00-05:00,114.91,114.99,114.91,114.99,454,0,0
2019-12-30 09:55:00-05:00,114.86,114.86,114.86,114.86,380,0,0
2019-12-30 10:01:00-05:00,114.84,114.96,114.84,114.96,482,0,0
2019-12-30 10:05:00-05:00,115.01,115.3,114.98,115.3,2224,0,0
2019-12-30 10:10:00-05:00,115.24,115.24,115.2,115.2,580,0,0
2019-12-30 10:11:00-05:00,115.2,115.2,115.2,115.2,356,0,0
2019-12-30 10:13:00-05:00,115.09,115.12,115.09,115.12,541,0,0
2019-12-30 10:15:00-05:00,115.32,115.32,115.12,115.12,635,0,0
2019-12-30 10:16:00-05:00,115.04,115.04,115.04,115.04,190,0,0
2019-12-30 10:18:00-05:00,115.09,115.09,115.09,115.09,291,0,0
2019-12-30 10:22:00-05:00,115.07,115.07,115.07,115.07,130,0,0
2019-12-30 10:24:00-05:00,115.09,115.09,115.09,115.09,404,0,0
2019-12-30 10:28:00-05:00,115.03,115.03,115.0,115.0,422,0,0
2019-12-30 10:30:00-05:00,114.78,114.78,114.78,114.78,142,0,0
2019-12-30 10:31:00-05:00,114.94,114.94,114.9,114.9,256,0,0
2019-12-30 10:32:00-05:00,114.8,114.8,114.8,114.8,147,0,0
2019-12-30 10:33:00-05:00,114.78,114.78,114.78,114.78,157,0,0
2019-12-30 10:34:00-05:00,114.82,114.82,114.82,114.82,579,0,0
2019-12-30 10:35:00-05:00,114.9,114.98,114.9,114.98,919,0,0
2019-12-30 10:44:00-05:00,115.04,115.04,115.04,115.04,336,0,0
2019-12-30 10:52:00-05:00,114.98,115.0,114.89,115.0,585,0,0
2019-12-30 10:55:00-05:00,115.0,115.0,115.0,115.0,851,0,0
2019-12-30 11:04:00-05:00,114.73,114.73,114.73,114.73,203,0,0
2019-12-30 11:05:00-05:00,114.85,114.85,114.76,114.76,638,0,0
2019-12-30 11:07:00-05:00,114.91,115.08,114.87,115.02,3027,0,0
2019-12-30 11:09:00-05:00,114.94,114.94,114.67,114.67,203,0,0
2019-12-30 11:10:00-05:00,114.8,114.8,114.8,114.8,107,0,0
2019-12-30 11:11:00-05:00,114.91,114.91,114.91,114.91,299,0,0
2019-12-30 11:14:00-05:00,115.09,115.09,115.09,115.09,127,0,0
2019-12-30 11:16:00-05:00,115.07,115.1,115.06,115.1,317,0,0
2019-12-30 11:17:00-05:00,115.15,115.16,115.15,115.16,594,0,0
2019-12-30 11:22:00-05:00,115.22,115.32,115.22,115.32,380,0,0
2019-12-30 11:23:00-05:00,115.22,115.22,115.21,115.22,666,0,0
2019-12-30 11:24:00-05:00,115.22,115.22,115.22,115.22,700,0,0
2019-12-30 11:37:00-05:00,115.31,115.31,115.31,115.31,140,0,0
2019-12-30 11:38:00-05:00,115.29,115.29,115.29,115.29,409,0,0
2019-12-30 11:40:00-05:00,115.29,115.32,115.29,115.32,238,0,0
2019-12-30 11:41:00-05:00,115.31,115.31,115.31,115.31,115,0,0
2019-12-30 11:42:00-05:00,115.33,115.33,115.33,115.33,113,0,0
2019-12-30 11:43:00-05:00,115.36,115.36,115.36,115.36,248,0,0
2019-12-30 11:44:00-05:00,115.37,115.41,115.37,115.37,625,0,0
2019-12-30 11:46:00-05:00,115.3,115.3,115.3,115.3,216,0,0
2019-12-30 11:47:00-05:00,115.32,115.49,115.32,115.49,507,0,0
2019-12-30 11:56:00-05:00,115.31,115.31,115.31,115.31,978,0,0
2019-12-30 11:59:00-05:00,115.36,115.36,115.36,115.36,610,0,0
2019-12-30 12:05:00-05:00,115.33,115.33,115.33,115.33,330,0,0
2019-12-30 12:09:00-05:00,115.35,115.35,115.35,115.35,608,0,0
2019-12-30 12:11:00-05:00,115.33,115.33,115.33,115.33,200,0,0
2019-12-30 12:12:00-05:00,115.33,115.36,115.33,115.36,317,0,0
2019-12-30 12:13:00-05:00,115.34,115.41,115.34,115.4,1127,0,0
2019-12-30 12:14:00-05:00,115.44,115.44,115.41,115.41,415,0,0
2019-12-30 12:15:00-05:00,115.42,115.45,115.42,115.45,330,0,0
2019-12-30 12:17:00-05:00,115.51,115.51,115.51,115.51,768,0,0
2019-12-30 12:23:00-05:00,115.53,115.57,115.53,115.57,711,0,0
2019-12-30 12:24:00-05:00,115.51,115.51,115.51,115.51,184,0,0
2019-12-30 12:27:00-05:00,115.57,115.57,115.57,115.57,707,0,0
2019-12-30 12:35:00-05:00,115.53,115.58,115.53,115.58,473,0,0
2019-12-30 12:39:00-05:00,115.56,115.56,115.56,115.56,123,0,0
2019-12-30 12:41:00-05:00,115.59,115.59,115.59,115.59,328,0,0
2019-12-30 12:42:00-05:00,115.56,115.58,115.56,115.58,823,0,0
2019-12-30 12:46:00-05:00,115.51,115.51,115.49,115.5,1058,0,0
2019-12-30 12:47:00-05:00,115.53,115.55,115.53,115.55,503,0,0
2019-12-30 12:48:00-05:00,115.56,115.63,115.56,115.63,621,0,0
2019-12-30 12:49:00-05:00,115.61,115.61,115.6,115.6,320,0,0
2019-12-30 12:50:00-05:00,115.67,115.67,115.67,115.67,114,0,0
2019-12-30 12:51:00-05:00,115.63,115.63,115.63,115.63,717,0,0
2019-12-30 12:57:00-05:00,115.61,115.61,115.56,115.56,888,0,0
2019-12-30 12:59:00-05:00,115.53,115.53,115.53,115.53,104,0,0
2019-12-30 13:00:00-05:00,115.54,115.56,115.54,115.54,800,0,0
2019-12-30 13:04:00-05:00,115.44,115.46,115.44,115.46,250,0,0
2019-12-30 13:05:00-05:00,115.45,115.59,115.45,115.59,1225,0,0
2019-12-30 13:08:00-05:00,115.61,115.65,115.61,115.65,367,0,0
2019-12-30 13:10:00-05:00,115.59,115.59,115.59,115.59,333,0,0
2019-12-30 13:12:00-05:00,115.6,115.6,115.6,115.6,231,0,0
2019-12-30 13:13:00-05:00,115.63,115.63,115.63,115.63,132,0,0
2019-12-30 13:17:00-05:00,115.59,115.62,115.59,115.62,206,0,0
2019-12-30 13:18:00-05:00,115.61,115.61,115.61,115.61,247,0,0
2019-12-30 13:20:00-05:00,115.55,115.55,115.55,115.55,363,0,0
2019-12-30 13:22:00-05:00,115.57,115.57,115.57,115.57,124,0,0
2019-12-30 13:23:00-05:00,115.6,115.6,115.56,115.56,412,0,0
2019-12-30 13:29:00-05:00,115.47,115.47,115.47,115.47,103,0,0
2019-12-30 13:30:00-05:00,115.46,115.48,115.46,115.48,352,0,0
2019-12-30 13:31:00-05:00,115.47,115.47,115.42,115.42,431,0,0
2019-12-30 13:32:00-05:00,115.4,115.4,115.4,115.4,327,0,0
2019-12-30 13:34:00-05:00,115.41,115.43,115.4,115.42,1181,0,0
2019-12-30 13:39:00-05:00,115.4,115.48,115.4,115.48,822,0,0
2019-12-30 13:49:00-05:00,115.5,115.5,115.5,115.5,142,0,0
2019-12-30 13:50:00-05:00,115.53,115.53,115.47,115.47,453,0,0
2019-12-30 13:55:00-05:00,115.53,115.53,115.51,115.51,220,0,0
2019-12-30 13:58:00-05:00,115.53,115.53,115.53,115.53,236,0,0
2019-12-30 14:01:00-05:00,115.45,115.6,115.45,115.56,2157,0,0
2019-12-30 14:03:00-05:00,115.58,115.78,115.56,115.77,1749,0,0
2019-12-30 14:04:00-05:00,115.68,115.76,115.68,115.76,347,0,0
2019-12-30 14:06:00-05:00,115.68,115.68,115.63,115.65,912,0,0
2019-12-30 14:11:00-05:00,115.6,115.6,115.6,115.6,354,0,0
2019-12-30 14:13:00-05:00,115.59,115.65,115.59,115.65,317,0,0
2019-12-30 14:14:00-05:00,115.66,115.66,115.66,115.66,118,0,0
2019-12-30 14:15:00-05:00,115.69,115.69,115.61,115.61,1498,0,0
2019-12-30 14:16:00-05:00,115.61,115.67,115.61,115.67,688,0,0
2019-12-30 14:17:00-05:00,115.67,115.69,115.67,115.69,400,0,0
2019-12-30 14:19:00-05:00,115.73,115.73,115.67,115.73,487,0,0
2019-12-30 14:20:00-05:00,115.67,115.68,115.67,115.67,583,0,0
2019-12-30 14:22:00-05:00,115.7,115.7,115.7,115.7,167,0,0
2019-12-30 14:23:00-05:00,115.68,115.69,115.68,115.69,311,0,0
2019-12-30 14:24:00-05:00,115.65,115.65,115.65,115.65,130,0,0
2019-12-30 14:25:00-05:00,115.69,115.71,115.69,115.71,630,0,0
2019-12-30 14:27:00-05:00,115.68,115.68,115.68,115.68,228,0,0
2019-12-30 14:31:00-05:00,115.64,115.64,115.64,115.64,201,0,0
2019-12-30 14:33:00-05:00,115.62,115.62,115.62,115.62,142,0,0
2019-12-30 14:34:00-05:00,115.61,115.61,115.61,115.61,221,0,0
2019-12-30 14:36:00-05:00,115.58,115.59,115.58,115.59,328,0,0
2019-12-30 14:39:00-05:00,115.53,115.53,115.53,115.53,260,0,0
2019-12-30 14:40:00-05:00,115.6,115.61,115.6,115.61,504,0,0
2019-12-30 14:41:00-05:00,115.59,115.59,115.59,115.59,237,0,0
2019-12-30 14:43:00-05:00,115.6,115.63,115.6,115.62,1169,0,0
2019-12-30 14:44:00-05:00,115.64,115.72,115.64,115.72,583,0,0
2019-12-30 14:47:00-05:00,115.71,115.71,115.71,115.71,319,0,0
2019-12-30 14:48:00-05:00,115.68,115.7,115.66,115.66,1426,0,0
2019-12-30 14:49:00-05:00,115.64,115.64,115.64,115.64,1001,0,0
2019-12-30 14:50:00-05:00,115.64,115.69,115.61,115.69,1447,0,0
2019-12-30 14:51:00-05:00,115.62,115.62,115.62,115.62,1188,0,0
2019-12-30 14:52:00-05:00,115.68,115.7,115.65,115.7,634,0,0
2019-12-30 14:53:00-05:00,115.68,115.74,115.65,115.71,2035,0,0
2019-12-30 14:54:00-05:00,115.73,115.75,115.65,115.75,3656,0,0
2019-12-30 14:55:00-05:00,115.68,115.68,115.61,115.63,1406,0,0
2019-12-30 14:56:00-05:00,115.52,115.62,115.49,115.58,3456,0,0
2019-12-30 14:57:00-05:00,115.57,115.58,115.52,115.54,2154,0,0
2019-12-30 14:59:00-05:00,115.54,115.54,115.34,115.51,1601,0,0
2019-12-30 15:00:00-05:00,115.46,115.46,115.46,115.46,994,0,0
2019-12-30 15:04:00-05:00,115.44,115.44,115.44,115.44,137,0,0
2019-12-30 15:06:00-05:00,115.41,115.53,115.41,115.53,869,0,0
2019-12-30 15:08:00-05:00,115.54,115.54,115.54,115.54,547,0,0
2019-12-30 15:09:00-05:00,115.53,115.53,115.53,115.53,795,0,0
2019-12-30 15:14:00-05:00,115.6,115.6,115.59,115.59,513,0,0
2019-12-30 15:15:00-05:00,115.57,115.6,115.57,115.6,309,0,0
2019-12-30 15:16:00-05:00,115.64,115.67,115.59,115.61,1058,0,0
2019-12-30 15:17:00-05:00,115.67,115.67,115.67,115.67,484,0,0
2019-12-30 15:20:00-05:00,115.68,115.71,115.68,115.71,1067,0,0
2019-12-30 15:24:00-05:00,115.68,115.68,115.68,115.68,531,0,0
2019-12-30 15:27:00-05:00,115.67,115.67,115.67,115.67,680,0,0
2019-12-30 15:28:00-05:00,115.7,115.7,115.7,115.7,244,0,0
2019-12-30 15:29:00-05:00,115.65,115.65,115.65,115.65,126,0,0
2019-12-30 15:30:00-05:00,115.7,115.7,115.7,115.7,412,0,0
2019-12-30 15:32:00-05:00,115.66,115.66,115.66,115.66,253,0,0
2019-12-30 15:34:00-05:00,115.64,115.64,115.64,115.64,121,0,0
2019-12-30 15:35:00-05:00,115.65,115.65,115.65,115.65,858,0,0
2019-12-30 15:37:00-05:00,115.59,115.59,115.59,115.59,155,0,0
2019-12-30 15:38:00-05:00,115.57,115.57,115.57,115.57,289,0,0
2019-12-30 15:39:00-05:00,115.56,115.61,115.56,115.61,736,0,0
2019-12-30 15:40:00-05:00,115.58,115.61,115.58,115.61,1067,0,0
2019-12-30 15:41:00-05:00,115.55,115.55,115.55,115.55,488,0,0
2019-12-30 15:42:00-05:00,115.56,115.56,115.56,115.56,146,0,0
2019-12-30 15:43:00-05:00,115.55,115.56,115.53,115.56,916,0,0
2019-12-30 15:44:00-05:00,115.56,115.56,115.52,115.55,874,0,0
2019-12-30 15:45:00-05:00,115.55,115.56,115.55,115.56,243,0,0
2019-12-30 15:46:00-05:00,115.58,115.58,115.54,115.57,1276,0,0
2019-12-30 15:47:00-05:00,115.57,115.6,115.57,115.58,558,0,0
2019-12-30 15:48:00-05:00,115.56,115.56,115.56,115.56,1007,0,0
2019-12-30 15:49:00-05:00,115.61,115.61,115.61,115.61,460,0,0
2019-12-30 15:50:00-05:00,115.54,115.58,115.53,115.57,1098,0,0
2019-12-30 15:51:00-05:00,115.62,115.65,115.62,115.65,1689,0,0
2019-12-30 15:52:00-05:00,115.61,115.61,115.61,115.61,258,0,0
2019-12-30 15:53:00-05:00,115.59,115.6,115.59,115.6,598,0,0
2019-12-30 15:54:00-05:00,115.6,115.67,115.6,115.65,2016,0,0
2019-12-30 15:55:00-05:00,115.63,115.74,115.63,115.71,1931,0,0
2019-12-30 15:56:00-05:00,115.72,115.75,115.7,115.72,2100,0,0
2019-12-30 15:57:00-05:00,115.7,115.71,115.59,115.62,3545,0,0
2019-12-30 15:58:00-05:00,115.62,115.7,115.62,115.66,3123,0,0
2019-12-30 15:59:00-05:00,115.64,115.8,115.59,115.76,16587,0,0
2019-12-31 09:30:00-05:00,115.72,115.72,115.72,115.72,1128,0,0
2019-12-31 09:32:00-05:00,115.98,116.0,115.98,116.0,805,0,0
2019-12-31 09:37:00-05:00,116.2,116.2,116.2,116.2,143,0,0
2019-12-31 09:39:00-05:00,115.94,116.07,115.89,116.07,2385,0,0
2019-12-31 09:52:00-05:00,116.12,116.12,116.12,116.12,158,0,0
2019-12-31 09:55:00-05:00,115.9,116.0,115.88,116.0,656,0,0
2019-12-31 09:58:00-05:00,116.0,116.0,115.91,115.98,539,0,0
2019-12-31 10:01:00-05:00,115.9,115.9,115.9,115.9,111,0,0
2019-12-31 10:02:00-05:00,115.93,115.93,115.93,115.93,662,0,0
2019-12-31 10:05:00-05:00,115.97,116.0,115.93,115.94,2167,0,0
2019-12-31 10:07:00-05:00,115.84,115.84,115.84,115.84,352,0,0
2019-12-31 10:10:00-05:00,115.77,115.82,115.77,115.82,319,0,0
2019-12-31 10:11:00-05:00,115.82,115.87,115.77,115.86,2061,0,0
2019-12-31 10:12:00-05:00,115.89,115.97,115.89,115.95,866,0,0
2019-12-31 10:17:00-05:00,116.03,116.03,116.03,116.03,206,0,0
2019-12-31 10:19:00-05:00,116.02,116.02,116.02,116.02,719,0,0
2019-12-31 10:22:00-05:00,115.82,115.82,115.82,115.82,522,0,0
2019-12-31 10:24:00-05:00,115.67,115.67,115.63,115.64,454,0,0
2019-12-31 10:25:00-05:00,115.54,115.54,115.54,115.54,103,0,0
2019-12-31 10:26:00-05:00,115.54,115.54,115.54,115.54,205,0,0
2019-12-31 10:30:00-05:00,115.57,115.59,115.53,115.59,1510,0,0
2019-12-31 10:33:00-05:00,115.59,115.59,115.59,115.59,315,0,0
2019-12-31 10:34:00-05:00,115.6,115.6,115.55,115.55,858,0,0
2019-12-31 10:37:00-05:00,115.5,115.57,115.5,115.57,1158,0,0
2019-12-31 10:38:00-05:00,115.53,115.53,115.53,115.53,311,0,0
2019-12-31 10:40:00-05:00,115.57,115.57,115.57,115.57,175,0,0
2019-12-31 10:42:00-05:00,115.48,115.62,115.48,115.62,1652,0,0
2019-12-31 10:45:00-05:00,115.57,115.57,115.57,115.57,320,0,0
2019-12-31 10:46:00-05:00,115.56,115.56,115.56,115.56,313,0,0
2019-12-31 10:47:00-05:00,115.58,115.58,115.58,115.58,336,0,0
2019-12-31 10:48:00-05:00,115.59,115.59,115.59,115.59,222,0,0
2019-12-31 10:49:00-05:00,115.58,115.58,115.57,115.58,494,0,0
2019-12-31 10:50:00-05:00,115.59,115.63,115.56,115.63,382,0,0
2019-12-31 10:51:00-05:00,115.6,115.6,115.6,115.6,411,0,0
2019-12-31 10:52:00-05:00,115.6,115.64,115.6,115.64,593,0,0
2019-12-31 10:53:00-05:00,115.59,115.59,115.59,115.59,109,0,0
2019-12-31 10:55:00-05:00,115.6,115.6,115.6,115.6,277,0,0
2019-12-31 10:58:00-05:00,115.6,115.67,115.58,115.67,1232,0,0
2019-12-31 10:59:00-05:00,115.61,115.64,115.57,115.6,503,0,0
